,     Angle,       PSD
0,5.0,2095
1,5.04003,2094
2,5.08006,2085
3,5.1201,2154
4,5.16013,2113
5,5.20016,2103
6,5.24019,2145
7,5.28023,2102
8,5.32026,2072
9,5.36029,1983
10,5.40032,2012
11,5.44035,2010
12,5.48039,1940
13,5.52042,1896
14,5.56045,1914
15,5.60048,1840
16,5.64052,1856
17,5.68055,1865
18,5.72058,1825
19,5.76061,1888
20,5.80064,1774
21,5.84068,1856
22,5.88071,1811
23,5.92074,1828
24,5.96077,1849
25,6.0008,1802
26,6.04084,1820
27,6.08087,1779
28,6.1209,1844
29,6.16093,1779
30,6.20097,1772
31,6.241,1775
32,6.28103,1675
33,6.32106,1724
34,6.36109,1759
35,6.40113,1716
36,6.44116,1711
37,6.48119,1694
38,6.52122,1703
39,6.56126,1761
40,6.60129,1669
41,6.64132,1623
42,6.68135,1691
43,6.72138,1572
44,6.76142,1645
45,6.80145,1666
46,6.84148,1687
47,6.88151,1594
48,6.92155,1619
49,6.96158,1585
50,7.00161,1627
51,7.04164,1689
52,7.08167,1637
53,7.12171,1625
54,7.16174,1695
55,7.20177,1626
56,7.2418,1601
57,7.28184,1634
58,7.32187,1557
59,7.3619,1552
60,7.40193,1584
61,7.44196,1614
62,7.482,1614
63,7.52203,1564
64,7.56206,1550
65,7.60209,1557
66,7.64213,1585
67,7.68216,1601
68,7.72219,1618
69,7.76222,1522
70,7.80225,1572
71,7.84229,1556
72,7.88232,1593
73,7.92235,1587
74,7.96238,1528
75,8.00241,1561
76,8.04245,1542
77,8.08248,1559
78,8.12251,1564
79,8.16254,1529
80,8.20258,1554
81,8.24261,1478
82,8.28264,1579
83,8.32267,1580
84,8.3627,1577
85,8.40274,1568
86,8.44277,1565
87,8.4828,1565
88,8.52283,1623
89,8.56287,1600
90,8.6029,1602
91,8.64293,1558
92,8.68296,1567
93,8.72299,1554
94,8.76303,1566
95,8.80306,1621
96,8.84309,1513
97,8.88312,1529
98,8.92316,1511
99,8.96319,1547
100,9.00322,1506
101,9.04325,1572
102,9.08328,1559
103,9.12332,1613
104,9.16335,1580
105,9.20338,1510
106,9.24341,1531
107,9.28345,1572
108,9.32348,1568
109,9.36351,1565
110,9.40354,1629
111,9.44357,1545
112,9.48361,1614
113,9.52364,1601
114,9.56367,1683
115,9.6037,1620
116,9.64374,1620
117,9.68377,1588
118,9.7238,1601
119,9.76383,1606
120,9.80386,1553
121,9.8439,1630
122,9.88393,1699
123,9.92396,1618
124,9.96399,1594
125,10.004,1642
126,10.0441,1674
127,10.0841,1569
128,10.1241,1621
129,10.1642,1607
130,10.2042,1708
131,10.2442,1615
132,10.2843,1724
133,10.3243,1655
134,10.3643,1612
135,10.4043,1681
136,10.4444,1740
137,10.4844,1773
138,10.5244,1723
139,10.5645,1684
140,10.6045,1757
141,10.6445,1679
142,10.6846,1737
143,10.7246,1694
144,10.7646,1710
145,10.8047,1705
146,10.8447,1858
147,10.8847,1736
148,10.9248,1797
149,10.9648,1735
150,11.0048,1757
151,11.0449,1746
152,11.0849,1776
153,11.1249,1794
154,11.165,1795
155,11.205,1785
156,11.245,1770
157,11.2851,1804
158,11.3251,1762
159,11.3651,1930
160,11.4052,1806
161,11.4452,1961
162,11.4852,1957
163,11.5252,1862
164,11.5653,1884
165,11.6053,1994
166,11.6453,1848
167,11.6854,1944
168,11.7254,1881
169,11.7654,1998
170,11.8055,1999
171,11.8455,2083
172,11.8855,2085
173,11.9256,2043
174,11.9656,2060
175,12.0056,2067
176,12.0457,2107
177,12.0857,2068
178,12.1257,2074
179,12.1658,2068
180,12.2058,2040
181,12.2458,2029
182,12.2859,2051
183,12.3259,2034
184,12.3659,2081
185,12.406,2072
186,12.446,2015
187,12.486,2064
188,12.5261,2051
189,12.5661,2081
190,12.6061,2107
191,12.6462,2051
192,12.6862,2024
193,12.7262,2085
194,12.7662,2109
195,12.8063,2113
196,12.8463,2160
197,12.8863,2059
198,12.9264,2148
199,12.9664,2113
200,13.0064,2082
201,13.0465,2062
202,13.0865,2034
203,13.1265,2061
204,13.1666,2034
205,13.2066,2199
206,13.2466,2175
207,13.2867,2202
208,13.3267,2092
209,13.3667,2185
210,13.4068,2173
211,13.4468,2152
212,13.4868,2169
213,13.5269,2223
214,13.5669,2161
215,13.6069,2193
216,13.647,2140
217,13.687,2205
218,13.727,2177
219,13.7671,2181
220,13.8071,2227
221,13.8471,2205
222,13.8871,2228
223,13.9272,2146
224,13.9672,2144
225,14.0072,2189
226,14.0473,2278
227,14.0873,2213
228,14.1273,2156
229,14.1674,2220
230,14.2074,2284
231,14.2474,2153
232,14.2875,2283
233,14.3275,2268
234,14.3675,2296
235,14.4076,2368
236,14.4476,2289
237,14.4876,2338
238,14.5277,2247
239,14.5677,2333
240,14.6077,2352
241,14.6478,2275
242,14.6878,2301
243,14.7278,2287
244,14.7679,2369
245,14.8079,2376
246,14.8479,2297
247,14.888,2308
248,14.928,2307
249,14.968,2375
250,15.008,2395
251,15.0481,2445
252,15.0881,2321
253,15.1281,2388
254,15.1682,2427
255,15.2082,2307
256,15.2482,2435
257,15.2883,2391
258,15.3283,2425
259,15.3683,2518
260,15.4084,2442
261,15.4484,2456
262,15.4884,2465
263,15.5285,2457
264,15.5685,2480
265,15.6085,2463
266,15.6486,2469
267,15.6886,2453
268,15.7286,2497
269,15.7687,2538
270,15.8087,2453
271,15.8487,2422
272,15.8888,2467
273,15.9288,2428
274,15.9688,2548
275,16.0089,2492
276,16.0489,2443
277,16.0889,2460
278,16.129,2428
279,16.169,2459
280,16.209,2478
281,16.249,2510
282,16.2891,2507
283,16.3291,2621
284,16.3691,2493
285,16.4092,2488
286,16.4492,2571
287,16.4892,2510
288,16.5293,2531
289,16.5693,2458
290,16.6093,2506
291,16.6494,2431
292,16.6894,2551
293,16.7294,2560
294,16.7695,2504
295,16.8095,2553
296,16.8495,2596
297,16.8896,2561
298,16.9296,2532
299,16.9696,2472
300,17.0097,2599
301,17.0497,2588
302,17.0897,2510
303,17.1298,2513
304,17.1698,2548
305,17.2098,2542
306,17.2499,2596
307,17.2899,2546
308,17.3299,2610
309,17.3699,2571
310,17.41,2627
311,17.45,2666
312,17.49,2541
313,17.5301,2667
314,17.5701,2657
315,17.6101,2589
316,17.6502,2680
317,17.6902,2603
318,17.7302,2574
319,17.7703,2580
320,17.8103,2705
321,17.8503,2683
322,17.8904,2683
323,17.9304,2683
324,17.9704,2639
325,18.0105,2639
326,18.0505,2726
327,18.0905,2722
328,18.1306,2603
329,18.1706,2670
330,18.2106,2657
331,18.2507,2704
332,18.2907,2826
333,18.3307,2744
334,18.3708,2701
335,18.4108,2707
336,18.4508,2763
337,18.4909,2746
338,18.5309,2831
339,18.5709,2800
340,18.6109,2799
341,18.651,2890
342,18.691,2788
343,18.731,2821
344,18.7711,2733
345,18.8111,2824
346,18.8511,2889
347,18.8912,2913
348,18.9312,2858
349,18.9712,2904
350,19.0113,2859
351,19.0513,2853
352,19.0913,2889
353,19.1314,2863
354,19.1714,2920
355,19.2114,2946
356,19.2515,2885
357,19.2915,2771
358,19.3315,2935
359,19.3716,2961
360,19.4116,2851
361,19.4516,3001
362,19.4917,2909
363,19.5317,2922
364,19.5717,2957
365,19.6118,2937
366,19.6518,2951
367,19.6918,2949
368,19.7318,2907
369,19.7719,2924
370,19.8119,2940
371,19.8519,2878
372,19.892,3057
373,19.932,3029
374,19.972,3058
375,20.0121,3037
376,20.0521,3002
377,20.0921,2975
378,20.1322,2900
379,20.1722,3017
380,20.2122,2978
381,20.2523,3034
382,20.2923,3069
383,20.3323,3046
384,20.3724,3214
385,20.4124,3015
386,20.4524,2981
387,20.4925,3037
388,20.5325,3056
389,20.5725,2946
390,20.6126,2956
391,20.6526,3088
392,20.6926,3020
393,20.7327,3047
394,20.7727,3006
395,20.8127,3117
396,20.8528,3082
397,20.8928,3061
398,20.9328,3068
399,20.9728,2982
400,21.0129,2971
401,21.0529,3018
402,21.0929,2871
403,21.133,2972
404,21.173,2993
405,21.213,2910
406,21.2531,2882
407,21.2931,2823
408,21.3331,2934
409,21.3732,2899
410,21.4132,2821
411,21.4532,2907
412,21.4933,2861
413,21.5333,2847
414,21.5733,2853
415,21.6134,2785
416,21.6534,2852
417,21.6934,2830
418,21.7335,2825
419,21.7735,2782
420,21.8135,2778
421,21.8536,2740
422,21.8936,2843
423,21.9336,2793
424,21.9737,2674
425,22.0137,2732
426,22.0537,2666
427,22.0937,2716
428,22.1338,2739
429,22.1738,2681
430,22.2138,2705
431,22.2539,2654
432,22.2939,2662
433,22.3339,2615
434,22.374,2572
435,22.414,2627
436,22.454,2597
437,22.4941,2507
438,22.5341,2578
439,22.5741,2492
440,22.6142,2590
441,22.6542,2524
442,22.6942,2463
443,22.7343,2448
444,22.7743,2404
445,22.8143,2484
446,22.8544,2457
447,22.8944,2385
448,22.9344,2400
449,22.9745,2328
450,23.0145,2342
451,23.0545,2260
452,23.0946,2192
453,23.1346,2301
454,23.1746,2360
455,23.2147,2260
456,23.2547,2231
457,23.2947,2194
458,23.3347,2218
459,23.3748,2236
460,23.4148,2148
461,23.4548,2215
462,23.4949,2179
463,23.5349,2151
464,23.5749,2140
465,23.615,2111
466,23.655,2086
467,23.695,2104
468,23.7351,2192
469,23.7751,2042
470,23.8151,2055
471,23.8552,2063
472,23.8952,2037
473,23.9352,2028
474,23.9753,2043
475,24.0153,2113
476,24.0553,2070
477,24.0954,1981
478,24.1354,2041
479,24.1754,1913
480,24.2155,1941
481,24.2555,1987
482,24.2955,1913
483,24.3356,1873
484,24.3756,1954
485,24.4156,1853
486,24.4556,1919
487,24.4957,1909
488,24.5357,1873
489,24.5757,1788
490,24.6158,1929
491,24.6558,1834
492,24.6958,1811
493,24.7359,1837
494,24.7759,1785
495,24.8159,1789
496,24.856,1832
497,24.896,1748
498,24.936,1773
499,24.9761,1730
500,25.0161,1705
501,25.0561,1751
502,25.0962,1698
503,25.1362,1762
504,25.1762,1711
505,25.2163,1660
506,25.2563,1768
507,25.2963,1734
508,25.3364,1694
509,25.3764,1752
510,25.4164,1707
511,25.4565,1770
512,25.4965,1744
513,25.5365,1756
514,25.5766,1731
515,25.6166,1688
516,25.6566,1589
517,25.6966,1610
518,25.7367,1635
519,25.7767,1682
520,25.8167,1630
521,25.8568,1616
522,25.8968,1661
523,25.9368,1692
524,25.9769,1552
525,26.0169,1644
526,26.0569,1611
527,26.097,1587
528,26.137,1573
529,26.177,1594
530,26.2171,1612
531,26.2571,1581
532,26.2971,1606
533,26.3372,1560
534,26.3772,1541
535,26.4172,1576
536,26.4573,1609
537,26.4973,1579
538,26.5373,1578
539,26.5774,1572
540,26.6174,1537
541,26.6574,1564
542,26.6975,1506
543,26.7375,1488
544,26.7775,1517
545,26.8175,1525
546,26.8576,1479
547,26.8976,1468
548,26.9376,1498
549,26.9777,1610
550,27.0177,1474
551,27.0577,1544
552,27.0978,1536
553,27.1378,1448
554,27.1778,1470
555,27.2179,1452
556,27.2579,1364
557,27.2979,1424
558,27.338,1499
559,27.378,1498
560,27.418,1466
561,27.4581,1384
562,27.4981,1454
563,27.5381,1435
564,27.5782,1427
565,27.6182,1405
566,27.6582,1425
567,27.6983,1456
568,27.7383,1464
569,27.7783,1431
570,27.8184,1422
571,27.8584,1392
572,27.8984,1437
573,27.9385,1424
574,27.9785,1430
575,28.0185,1314
576,28.0585,1440
577,28.0986,1409
578,28.1386,1406
579,28.1786,1409
580,28.2187,1370
581,28.2587,1418
582,28.2987,1356
583,28.3388,1362
584,28.3788,1370
585,28.4188,1394
586,28.4589,1360
587,28.4989,1371
588,28.5389,1370
589,28.579,1347
590,28.619,1379
591,28.659,1323
592,28.6991,1369
593,28.7391,1363
594,28.7791,1354
595,28.8192,1363
596,28.8592,1486
597,28.8992,1324
598,28.9393,1350
599,28.9793,1303
600,29.0193,1359
601,29.0594,1369
602,29.0994,1363
603,29.1394,1313
604,29.1794,1323
605,29.2195,1345
606,29.2595,1291
607,29.2995,1311
608,29.3396,1345
609,29.3796,1308
610,29.4196,1256
611,29.4597,1351
612,29.4997,1300
613,29.5397,1268
614,29.5798,1348
615,29.6198,1313
616,29.6598,1214
617,29.6999,1329
618,29.7399,1248
619,29.7799,1297
620,29.82,1268
621,29.86,1241
622,29.9,1304
623,29.9401,1310
624,29.9801,1325
625,30.0201,1281
626,30.0602,1237
627,30.1002,1215
628,30.1402,1233
629,30.1803,1286
630,30.2203,1202
631,30.2603,1293
632,30.3004,1250
633,30.3404,1258
634,30.3804,1232
635,30.4204,1247
636,30.4605,1281
637,30.5005,1282
638,30.5405,1218
639,30.5806,1224
640,30.6206,1241
641,30.6606,1185
642,30.7007,1239
643,30.7407,1221
644,30.7807,1211
645,30.8208,1192
646,30.8608,1202
647,30.9008,1187
648,30.9409,1198
649,30.9809,1195
650,31.0209,1217
651,31.061,1218
652,31.101,1199
653,31.141,1253
654,31.1811,1197
655,31.2211,1120
656,31.2611,1254
657,31.3012,1142
658,31.3412,1150
659,31.3812,1185
660,31.4213,1149
661,31.4613,1145
662,31.5013,1213
663,31.5413,1207
664,31.5814,1191
665,31.6214,1243
666,31.6614,1116
667,31.7015,1142
668,31.7415,1155
669,31.7815,1176
670,31.8216,1195
671,31.8616,1223
672,31.9016,1156
673,31.9417,1151
674,31.9817,1219
675,32.0217,1201
676,32.0618,1166
677,32.1018,1139
678,32.1418,1162
679,32.1819,1184
680,32.2219,1159
681,32.2619,1135
682,32.302,1164
683,32.342,1084
684,32.382,1162
685,32.4221,1148
686,32.4621,1051
687,32.5021,1122
688,32.5422,1160
689,32.5822,1151
690,32.6222,1086
691,32.6623,1159
692,32.7023,1103
693,32.7423,1101
694,32.7823,1149
695,32.8224,1101
696,32.8624,1131
697,32.9024,1105
698,32.9425,1184
699,32.9825,1100
700,33.0225,1133
701,33.0626,1183
702,33.1026,1123
703,33.1426,1086
704,33.1827,1133
705,33.2227,1116
706,33.2627,1097
707,33.3028,1092
708,33.3428,1111
709,33.3828,1099
710,33.4229,1093
711,33.4629,1066
712,33.5029,1114
713,33.543,1126
714,33.583,1108
715,33.623,1169
716,33.6631,1104
717,33.7031,1112
718,33.7431,1084
719,33.7832,1208
720,33.8232,1095
721,33.8632,1175
722,33.9032,1116
723,33.9433,1137
724,33.9833,1116
725,34.0233,1070
726,34.0634,1096
727,34.1034,1135
728,34.1434,1159
729,34.1835,1122
730,34.2235,1140
731,34.2635,1156
732,34.3036,1176
733,34.3436,1192
734,34.3836,1129
735,34.4237,1190
736,34.4637,1158
737,34.5037,1076
738,34.5438,1087
739,34.5838,1133
740,34.6238,1160
741,34.6639,1128
742,34.7039,1160
743,34.7439,1194
744,34.784,1200
745,34.824,1137
746,34.864,1153
747,34.9041,1193
748,34.9441,1153
749,34.9841,1131
750,35.0241,1162
751,35.0642,1179
752,35.1042,1148
753,35.1442,1069
754,35.1843,1063
755,35.2243,1142
756,35.2643,1062
757,35.3044,1135
758,35.3444,1092
759,35.3844,1115
760,35.4245,1131
761,35.4645,1117
762,35.5045,1169
763,35.5446,1170
764,35.5846,1159
765,35.6246,1151
766,35.6647,1148
767,35.7047,1101
768,35.7447,1102
769,35.7848,1096
770,35.8248,1093
771,35.8648,1107
772,35.9049,1086
773,35.9449,1085
774,35.9849,1149
775,36.025,1120
776,36.065,1168
777,36.105,1121
778,36.1451,1110
779,36.1851,1126
780,36.2251,1132
781,36.2651,1083
782,36.3052,1106
783,36.3452,1116
784,36.3852,1094
785,36.4253,1066
786,36.4653,1091
787,36.5053,1107
788,36.5454,1057
789,36.5854,1141
790,36.6254,1114
791,36.6655,1123
792,36.7055,1107
793,36.7455,1097
794,36.7856,1109
795,36.8256,1042
796,36.8656,1099
797,36.9057,1101
798,36.9457,1142
799,36.9857,1086
800,37.0258,1097
801,37.0658,1105
802,37.1058,1088
803,37.1459,1072
804,37.1859,1109
805,37.2259,1102
806,37.266,1124
807,37.306,1054
808,37.346,1075
809,37.386,1120
810,37.4261,1120
811,37.4661,1068
812,37.5061,1091
813,37.5462,1027
814,37.5862,1095
815,37.6262,1118
816,37.6663,1083
817,37.7063,1034
818,37.7463,1092
819,37.7864,1132
820,37.8264,1056
821,37.8664,1095
822,37.9065,1044
823,37.9465,1096
824,37.9865,1120
825,38.0266,1072
826,38.0666,1090
827,38.1066,1122
828,38.1467,1064
829,38.1867,1148
830,38.2267,1014
831,38.2668,1116
832,38.3068,1070
833,38.3468,1039
834,38.3869,1107
835,38.4269,1043
836,38.4669,1049
837,38.507,1120
838,38.547,1066
839,38.587,1098
840,38.627,1076
841,38.6671,1142
842,38.7071,1068
843,38.7471,1053
844,38.7872,1068
845,38.8272,1058
846,38.8672,1058
847,38.9073,1117
848,38.9473,1051
849,38.9873,1080
850,39.0274,1048
851,39.0674,1023
852,39.1074,1094
853,39.1475,1039
854,39.1875,1053
855,39.2275,1049
856,39.2676,1047
857,39.3076,1058
858,39.3476,978
859,39.3877,1053
860,39.4277,1002
861,39.4677,1069
862,39.5078,1066
863,39.5478,1061
864,39.5878,1014
865,39.6279,1019
866,39.6679,1034
867,39.7079,1014
868,39.7479,1003
869,39.788,1017
870,39.828,1007
871,39.868,977
872,39.9081,1073
873,39.9481,993
874,39.9881,1017
875,40.0282,1022
876,40.0682,1037
877,40.1082,995
878,40.1483,1036
879,40.1883,1090
880,40.2283,979
881,40.2684,1037
882,40.3084,1033
883,40.3484,1040
884,40.3885,995
885,40.4285,1014
886,40.4685,1069
887,40.5086,998
888,40.5486,1065
889,40.5886,1034
890,40.6287,987
891,40.6687,1022
892,40.7087,995
893,40.7488,1035
894,40.7888,1012
895,40.8288,979
896,40.8689,1048
897,40.9089,1021
898,40.9489,1000
899,40.9889,996
900,41.029,1014
901,41.069,994
902,41.109,960
903,41.1491,1044
904,41.1891,974
905,41.2291,1040
906,41.2692,973
907,41.3092,1031
908,41.3492,987
909,41.3893,1024
910,41.4293,1020
911,41.4693,1018
912,41.5094,1030
913,41.5494,1016
914,41.5894,1046
915,41.6295,1033
916,41.6695,933
917,41.7095,975
918,41.7496,1035
919,41.7896,966
920,41.8296,948
921,41.8697,997
922,41.9097,942
923,41.9497,936
924,41.9898,981
925,42.0298,970
926,42.0698,1012
927,42.1098,1023
928,42.1499,1065
929,42.1899,921
930,42.2299,933
931,42.27,1063
932,42.31,990
933,42.35,968
934,42.3901,891
935,42.4301,951
936,42.4701,969
937,42.5102,936
938,42.5502,969
939,42.5902,912
940,42.6303,941
941,42.6703,970
942,42.7103,958
943,42.7504,938
944,42.7904,924
945,42.8304,945
946,42.8705,921
947,42.9105,948
948,42.9505,945
949,42.9906,913
950,43.0306,861
951,43.0706,913
952,43.1107,927
953,43.1507,907
954,43.1907,917
955,43.2308,909
956,43.2708,946
957,43.3108,944
958,43.3508,930
959,43.3909,875
960,43.4309,939
961,43.4709,888
962,43.511,923
963,43.551,972
964,43.591,885
965,43.6311,928
966,43.6711,873
967,43.7111,966
968,43.7512,913
969,43.7912,968
970,43.8312,850
971,43.8713,931
972,43.9113,937
973,43.9513,843
974,43.9914,871
975,44.0314,864
976,44.0714,877
977,44.1115,895
978,44.1515,926
979,44.1915,904
980,44.2316,862
981,44.2716,868
982,44.3116,909
983,44.3517,869
984,44.3917,900
985,44.4317,866
986,44.4717,839
987,44.5118,881
988,44.5518,864
989,44.5918,876
990,44.6319,870
991,44.6719,845
992,44.7119,895
993,44.752,876
994,44.792,886
995,44.832,878
996,44.8721,874
997,44.9121,924
998,44.9521,848
999,44.9922,825
1000,45.0322,847
1001,45.0722,861
1002,45.1123,816
1003,45.1523,879
1004,45.1923,820
1005,45.2324,857
1006,45.2724,859
1007,45.3124,876
1008,45.3525,818
1009,45.3925,828
1010,45.4325,805
1011,45.4726,867
1012,45.5126,857
1013,45.5526,774
1014,45.5927,822
1015,45.6327,845
1016,45.6727,800
1017,45.7127,830
1018,45.7528,788
1019,45.7928,824
1020,45.8328,800
1021,45.8729,835
1022,45.9129,822
1023,45.9529,792
1024,45.993,802
1025,46.033,768
1026,46.073,797
1027,46.1131,820
1028,46.1531,807
1029,46.1931,815
1030,46.2332,772
1031,46.2732,786
1032,46.3132,754
1033,46.3533,804
1034,46.3933,795
1035,46.4333,776
1036,46.4734,841
1037,46.5134,770
1038,46.5534,743
1039,46.5935,761
1040,46.6335,760
1041,46.6735,752
1042,46.7136,785
1043,46.7536,744
1044,46.7936,727
1045,46.8336,745
1046,46.8737,785
1047,46.9137,770
1048,46.9537,778
1049,46.9938,779
1050,47.0338,789
1051,47.0738,740
1052,47.1139,798
1053,47.1539,770
1054,47.1939,759
1055,47.234,754
1056,47.274,728
1057,47.314,746
1058,47.3541,734
1059,47.3941,714
1060,47.4341,768
1061,47.4742,754
1062,47.5142,739
1063,47.5542,729
1064,47.5943,757
1065,47.6343,705
1066,47.6743,688
1067,47.7144,790
1068,47.7544,705
1069,47.7944,727
1070,47.8345,782
1071,47.8745,699
1072,47.9145,645
1073,47.9546,759
1074,47.9946,688
1075,48.0346,732
1076,48.0746,737
1077,48.1147,737
1078,48.1547,649
1079,48.1947,732
1080,48.2348,687
1081,48.2748,735
1082,48.3148,685
1083,48.3549,642
1084,48.3949,710
1085,48.4349,658
1086,48.475,749
1087,48.515,691
1088,48.555,697
1089,48.5951,723
1090,48.6351,659
1091,48.6751,697
1092,48.7152,687
1093,48.7552,684
1094,48.7952,718
1095,48.8353,662
1096,48.8753,695
1097,48.9153,694
1098,48.9554,630
1099,48.9954,622
1100,49.0354,735
1101,49.0755,659
1102,49.1155,713
1103,49.1555,625
1104,49.1955,671
1105,49.2356,704
1106,49.2756,689
1107,49.3156,718
1108,49.3557,681
1109,49.3957,670
1110,49.4357,657
1111,49.4758,715
1112,49.5158,683
1113,49.5558,648
1114,49.5959,651
1115,49.6359,604
1116,49.6759,634
1117,49.716,647
1118,49.756,613
1119,49.796,631
1120,49.8361,663
1121,49.8761,630
1122,49.9161,648
1123,49.9562,633
1124,49.9962,658
1125,50.0362,613
1126,50.0763,618
1127,50.1163,650
1128,50.1563,594
1129,50.1964,613
1130,50.2364,629
1131,50.2764,605
1132,50.3165,641
1133,50.3565,627
1134,50.3965,607
1135,50.4365,613
1136,50.4766,616
1137,50.5166,654
1138,50.5566,673
1139,50.5967,586
1140,50.6367,548
1141,50.6767,621
1142,50.7168,650
1143,50.7568,602
1144,50.7968,607
1145,50.8369,599
1146,50.8769,607
1147,50.9169,594
1148,50.957,568
1149,50.997,618
1150,51.037,572
1151,51.0771,634
1152,51.1171,641
1153,51.1571,570
1154,51.1972,604
1155,51.2372,615
1156,51.2772,577
1157,51.3173,615
1158,51.3573,588
1159,51.3973,610
1160,51.4374,636
1161,51.4774,594
1162,51.5174,604
1163,51.5574,578
1164,51.5975,573
1165,51.6375,563
1166,51.6775,569
1167,51.7176,570
1168,51.7576,600
1169,51.7976,589
1170,51.8377,569
1171,51.8777,582
1172,51.9177,552
1173,51.9578,526
1174,51.9978,568
1175,52.0378,569
1176,52.0779,554
1177,52.1179,558
1178,52.1579,635
1179,52.198,554
1180,52.238,557
1181,52.278,550
1182,52.3181,544
1183,52.3581,547
1184,52.3981,543
1185,52.4382,539
1186,52.4782,564
1187,52.5182,534
1188,52.5583,507
1189,52.5983,540
1190,52.6383,557
1191,52.6784,518
1192,52.7184,531
1193,52.7584,547
1194,52.7984,569
1195,52.8385,549
1196,52.8785,588
1197,52.9185,525
1198,52.9586,553
1199,52.9986,519
1200,53.0386,563
1201,53.0787,548
1202,53.1187,510
1203,53.1587,583
1204,53.1988,563
1205,53.2388,542
1206,53.2788,516
1207,53.3189,545
1208,53.3589,537
1209,53.3989,544
1210,53.439,547
1211,53.479,564
1212,53.519,561
1213,53.5591,574
1214,53.5991,542
1215,53.6391,530
1216,53.6792,556
1217,53.7192,537
1218,53.7592,570
1219,53.7993,573
1220,53.8393,514
1221,53.8793,527
1222,53.9193,521
1223,53.9594,528
1224,53.9994,525
1225,54.0394,549
1226,54.0795,483
1227,54.1195,541
1228,54.1595,547
1229,54.1996,531
1230,54.2396,528
1231,54.2796,519
1232,54.3197,547
1233,54.3597,529
1234,54.3997,521
1235,54.4398,528
1236,54.4798,490
1237,54.5198,490
1238,54.5599,520
1239,54.5999,499
1240,54.6399,492
1241,54.68,557
1242,54.72,481
1243,54.76,493
1244,54.8001,509
1245,54.8401,490
1246,54.8801,500
1247,54.9202,522
1248,54.9602,509
1249,55.0002,500
1250,55.0402,499
1251,55.0803,478
1252,55.1203,515
1253,55.1603,500
1254,55.2004,517
1255,55.2404,513
1256,55.2804,533
1257,55.3205,472
1258,55.3605,493
1259,55.4005,489
1260,55.4406,493
1261,55.4806,521
1262,55.5206,529
1263,55.5607,515
1264,55.6007,511
1265,55.6407,531
1266,55.6808,490
1267,55.7208,507
1268,55.7608,513
1269,55.8009,495
1270,55.8409,490
1271,55.8809,474
1272,55.921,520
1273,55.961,553
1274,56.001,471
1275,56.0411,497
1276,56.0811,472
1277,56.1211,478
1278,56.1612,443
1279,56.2012,475
1280,56.2412,458
1281,56.2812,470
1282,56.3213,491
1283,56.3613,490
1284,56.4013,507
1285,56.4414,497
1286,56.4814,492
1287,56.5214,483
1288,56.5615,476
1289,56.6015,485
1290,56.6415,484
1291,56.6816,493
1292,56.7216,476
1293,56.7616,450
1294,56.8017,465
1295,56.8417,502
1296,56.8817,484
1297,56.9218,500
1298,56.9618,437
1299,57.0018,486
1300,57.0419,463
1301,57.0819,480
1302,57.1219,475
1303,57.162,468
1304,57.202,498
1305,57.242,441
1306,57.2821,470
1307,57.3221,469
1308,57.3621,474
1309,57.4021,421
1310,57.4422,454
1311,57.4822,494
1312,57.5222,462
1313,57.5623,440
1314,57.6023,481
1315,57.6423,442
1316,57.6824,442
1317,57.7224,468
1318,57.7624,492
1319,57.8025,450
1320,57.8425,456
1321,57.8825,474
1322,57.9226,473
1323,57.9626,477
1324,58.0026,474
1325,58.0427,462
1326,58.0827,457
1327,58.1227,481
1328,58.1628,461
1329,58.2028,439
1330,58.2428,479
1331,58.2829,464
1332,58.3229,445
1333,58.3629,501
1334,58.403,417
1335,58.443,466
1336,58.483,449
1337,58.5231,462
1338,58.5631,440
1339,58.6031,454
1340,58.6431,422
1341,58.6832,472
1342,58.7232,430
1343,58.7632,481
1344,58.8033,445
1345,58.8433,430
1346,58.8833,416
1347,58.9234,440
1348,58.9634,470
1349,59.0034,421
1350,59.0435,465
1351,59.0835,414
1352,59.1235,414
1353,59.1636,433
1354,59.2036,434
1355,59.2436,420
1356,59.2837,416
1357,59.3237,431
1358,59.3637,428
1359,59.4038,433
1360,59.4438,417
1361,59.4838,433
1362,59.5239,454
1363,59.5639,415
1364,59.6039,427
1365,59.644,428
1366,59.684,392
1367,59.724,426
1368,59.764,380
1369,59.8041,443
1370,59.8441,428
1371,59.8841,408
1372,59.9242,432
1373,59.9642,430
1374,60.0042,434
1375,60.0443,469
1376,60.0843,418
1377,60.1243,458
1378,60.1644,434
1379,60.2044,428
1380,60.2444,425
1381,60.2845,427
1382,60.3245,409
1383,60.3645,405
1384,60.4046,427
1385,60.4446,422
1386,60.4846,426
1387,60.5247,387
1388,60.5647,404
1389,60.6047,432
1390,60.6448,414
1391,60.6848,409
1392,60.7248,403
1393,60.7649,421
1394,60.8049,417
1395,60.8449,396
1396,60.885,429
1397,60.925,435
1398,60.965,389
1399,61.005,412
1400,61.0451,418
1401,61.0851,433
1402,61.1251,411
1403,61.1652,426
1404,61.2052,429
1405,61.2452,429
1406,61.2853,406
1407,61.3253,432
1408,61.3653,415
1409,61.4054,409
1410,61.4454,402
1411,61.4854,426
1412,61.5255,410
1413,61.5655,414
1414,61.6055,413
1415,61.6456,434
1416,61.6856,439
1417,61.7256,427
1418,61.7657,423
1419,61.8057,416
1420,61.8457,436
1421,61.8858,406
1422,61.9258,407
1423,61.9658,427
1424,62.0059,377
1425,62.0459,408
1426,62.0859,427
1427,62.1259,384
1428,62.166,407
1429,62.206,430
1430,62.246,424
1431,62.2861,435
1432,62.3261,416
1433,62.3661,406
1434,62.4062,384
1435,62.4462,422
1436,62.4862,404
1437,62.5263,404
1438,62.5663,390
1439,62.6063,411
1440,62.6464,398
1441,62.6864,403
1442,62.7264,398
1443,62.7665,371
1444,62.8065,397
1445,62.8465,417
1446,62.8866,399
1447,62.9266,415
1448,62.9666,409
1449,63.0067,415
1450,63.0467,403
1451,63.0867,407
1452,63.1268,417
1453,63.1668,430
1454,63.2068,433
1455,63.2469,392
1456,63.2869,375
1457,63.3269,400
1458,63.3669,405
1459,63.407,403
1460,63.447,425
1461,63.487,410
1462,63.5271,390
1463,63.5671,397
1464,63.6071,365
1465,63.6472,388
1466,63.6872,391
1467,63.7272,430
1468,63.7673,408
1469,63.8073,406
1470,63.8473,405
1471,63.8874,390
1472,63.9274,378
1473,63.9674,420
1474,64.0075,390
1475,64.0475,400
1476,64.0875,437
1477,64.1276,448
1478,64.1676,409
1479,64.2076,397
1480,64.2477,444
1481,64.2877,392
1482,64.3277,380
1483,64.3678,393
1484,64.4078,400
1485,64.4478,379
1486,64.4878,370
1487,64.5279,410
1488,64.5679,425
1489,64.6079,393
1490,64.648,380
1491,64.688,385
1492,64.728,360
1493,64.7681,381
1494,64.8081,390
1495,64.8481,416
1496,64.8882,380
1497,64.9282,377
1498,64.9682,359
1499,65.0083,382
1500,65.0483,397
1501,65.0883,392
1502,65.1284,379
1503,65.1684,396
1504,65.2084,372
1505,65.2485,425
1506,65.2885,384
1507,65.3285,399
1508,65.3686,386
1509,65.4086,391
1510,65.4486,411
1511,65.4887,387
1512,65.5287,381
1513,65.5687,430
1514,65.6088,396
1515,65.6488,387
1516,65.6888,386
1517,65.7288,393
1518,65.7689,381
1519,65.8089,373
1520,65.8489,354
1521,65.889,407
1522,65.929,369
1523,65.969,393
1524,66.0091,350
1525,66.0491,377
1526,66.0891,395
1527,66.1292,385
1528,66.1692,405
1529,66.2092,396
1530,66.2493,362
1531,66.2893,387
1532,66.3293,348
1533,66.3694,392
1534,66.4094,391
1535,66.4494,361
1536,66.4895,411
1537,66.5295,419
1538,66.5695,379
1539,66.6096,373
1540,66.6496,399
1541,66.6896,358
1542,66.7297,417
1543,66.7697,376
1544,66.8097,388
1545,66.8497,378
1546,66.8898,349
1547,66.9298,381
1548,66.9698,412
1549,67.0099,376
1550,67.0499,424
1551,67.0899,378
1552,67.13,365
1553,67.17,365
1554,67.21,358
1555,67.2501,412
1556,67.2901,344
1557,67.3301,364
1558,67.3702,358
1559,67.4102,391
1560,67.4502,385
1561,67.4903,369
1562,67.5303,396
1563,67.5703,387
1564,67.6104,364
1565,67.6504,373
1566,67.6904,375
1567,67.7305,353
1568,67.7705,396
1569,67.8105,363
1570,67.8506,393
1571,67.8906,374
1572,67.9306,398
1573,67.9707,405
1574,68.0107,355
1575,68.0507,384
1576,68.0907,387
1577,68.1308,406
1578,68.1708,359
1579,68.2108,360
1580,68.2509,368
1581,68.2909,381
1582,68.3309,369
1583,68.371,394
1584,68.411,374
1585,68.451,385
1586,68.4911,415
1587,68.5311,383
1588,68.5711,357
1589,68.6112,334
1590,68.6512,379
1591,68.6912,392
1592,68.7313,395
1593,68.7713,413
1594,68.8113,325
1595,68.8514,353
1596,68.8914,395
1597,68.9314,387
1598,68.9715,361
1599,69.0115,359
1600,69.0515,396
1601,69.0916,348
1602,69.1316,387
1603,69.1716,343
1604,69.2116,384
1605,69.2517,352
1606,69.2917,364
1607,69.3317,376
1608,69.3718,380
1609,69.4118,350
1610,69.4518,387
1611,69.4919,397
1612,69.5319,368
1613,69.5719,396
1614,69.612,360
1615,69.652,369
1616,69.692,369
1617,69.7321,392
1618,69.7721,364
1619,69.8121,385
1620,69.8522,353
1621,69.8922,357
1622,69.9322,382
1623,69.9723,377
1624,70.0123,404
