Batch,scan005
Instrument ID,084303
Data Mode,%T
Sample,Sample001
Cycle,Cycle01
Date Collected,19/06/2025
Time Collected,04:01:19
Entries,Data Points
nm,%T
390.0,XXX.XXX
391.0,XXX.XXX
392.0,XXX.XXX
393.0,XXX.XXX
394.0,97.187
395.0,97.542
396.0,98.532
397.0,99.914
398.0,101.372
399.0,101.987
400.0,102.331
401.0,101.344
402.0,99.121
403.0,98.677
404.0,98.636
405.0,97.393
406.0,97.196
407.0,96.097
408.0,95.021
409.0,97.954
410.0,99.781
411.0,97.728
412.0,97.220
413.0,99.113
414.0,100.306
415.0,100.320
416.0,99.046
417.0,97.061
418.0,96.129
419.0,96.129
420.0,97.300
421.0,99.903
422.0,101.647
423.0,101.771
424.0,100.845
425.0,98.448
426.0,96.508
427.0,96.587
428.0,98.197
429.0,100.563
430.0,100.769
431.0,99.558
432.0,101.603
433.0,104.253
434.0,101.895
435.0,98.529
436.0,98.966
437.0,98.920
438.0,97.288
439.0,97.547
440.0,97.889
441.0,98.249
442.0,99.232
443.0,97.937
444.0,97.186
445.0,98.359
446.0,98.305
447.0,99.168
448.0,100.949
449.0,100.755
450.0,100.153
451.0,99.617
452.0,98.293
453.0,98.175
454.0,99.394
455.0,99.316
456.0,98.499
457.0,99.113
458.0,100.277
459.0,100.140
460.0,99.231
461.0,99.110
462.0,99.494
463.0,100.090
464.0,100.943
465.0,100.854
466.0,100.515
467.0,100.599
468.0,99.498
469.0,98.630
470.0,99.710
471.0,100.764
472.0,100.934
473.0,100.654
474.0,99.698
475.0,98.708
476.0,99.115
477.0,100.888
478.0,101.805
479.0,101.023
480.0,99.989
481.0,99.464
482.0,99.721
483.0,100.367
484.0,100.190
485.0,99.867
486.0,100.291
487.0,100.575
488.0,100.693
489.0,100.760
490.0,100.159
491.0,99.640
492.0,99.975
493.0,100.415
494.0,100.451
495.0,100.199
496.0,99.556
497.0,99.144
498.0,99.510
499.0,99.877
500.0,99.894
501.0,99.945
502.0,100.066
503.0,99.908
504.0,99.611
505.0,99.506
506.0,99.255
507.0,99.331
508.0,99.844
509.0,99.927
510.0,100.227
511.0,100.971
512.0,100.926
513.0,100.277
514.0,100.177
515.0,100.233
516.0,99.739
517.0,99.379
518.0,99.618
519.0,100.136
520.0,100.161
521.0,99.510
522.0,99.495
523.0,100.198
524.0,100.417
525.0,100.252
526.0,100.185
527.0,99.930
528.0,99.708
529.0,100.340
530.0,101.224
531.0,101.146
532.0,100.657
533.0,100.428
534.0,99.893
535.0,99.327
536.0,99.610
537.0,100.059
538.0,99.832
539.0,99.588
540.0,99.879
541.0,100.021
542.0,99.459
543.0,99.220
544.0,99.993
545.0,100.617
546.0,100.620
547.0,100.453
548.0,99.992
549.0,99.578
550.0,99.651
551.0,99.844
552.0,99.815
553.0,99.717
554.0,100.064
555.0,100.521
556.0,100.216
557.0,99.565
558.0,99.707
559.0,100.606
560.0,100.794
561.0,100.321
562.0,100.418
563.0,100.385
564.0,100.058
565.0,100.276
566.0,100.221
567.0,99.697
568.0,99.919
569.0,100.869
570.0,101.465
571.0,101.096
572.0,100.382
573.0,100.215
574.0,100.501
575.0,100.733
576.0,100.630
577.0,100.578
578.0,100.657
579.0,100.551
580.0,100.669
581.0,100.945
582.0,100.900
583.0,100.665
584.0,100.669
585.0,100.952
586.0,100.899
587.0,100.611
588.0,100.611
589.0,100.595
590.0,100.565
591.0,100.727
592.0,100.740
593.0,100.679
594.0,100.754
595.0,100.762
596.0,100.879
597.0,101.202
598.0,101.076
599.0,100.561
600.0,100.373
601.0,100.384
602.0,100.558
603.0,100.955
604.0,100.998
605.0,100.668
606.0,100.460
607.0,100.544
608.0,100.570
609.0,100.360
610.0,100.493
611.0,100.817
612.0,100.852
613.0,100.992
614.0,100.932
615.0,100.335
616.0,100.183
617.0,100.748
618.0,101.166
619.0,101.170
620.0,101.045
621.0,100.842
622.0,100.697
623.0,100.966
624.0,101.323
625.0,101.094
626.0,100.614
627.0,100.550
628.0,100.748
629.0,100.895
630.0,100.976
631.0,100.987
632.0,100.987
633.0,100.925
634.0,100.818
635.0,100.926
636.0,100.963
637.0,100.693
638.0,100.698
639.0,100.912
640.0,100.723
641.0,100.444
642.0,100.566
643.0,100.933
644.0,101.056
645.0,100.854
646.0,100.789
647.0,100.994
648.0,101.166
649.0,101.080
650.0,100.881
651.0,100.745
652.0,100.672
653.0,100.789
654.0,100.905
655.0,100.860
656.0,100.939
657.0,100.899
658.0,100.596
659.0,100.607
660.0,100.907
661.0,101.052
662.0,100.963
663.0,100.741
664.0,100.760
665.0,101.023
666.0,101.046
667.0,100.838
668.0,100.789
669.0,101.002
670.0,101.170
671.0,100.943
672.0,100.670
673.0,101.056
674.0,101.554
675.0,101.329
676.0,100.944
677.0,100.797
678.0,100.695
679.0,100.805
680.0,101.090
681.0,101.236
682.0,100.989
683.0,100.516
684.0,100.325
685.0,100.492
686.0,100.803
687.0,100.934
688.0,100.865
689.0,100.832
690.0,100.703
691.0,100.712
692.0,100.915
693.0,100.718
694.0,100.391
695.0,100.505
696.0,100.719
697.0,100.611
698.0,100.481
699.0,100.784
700.0,101.202
701.0,101.105
702.0,100.742
703.0,100.729
704.0,100.739
705.0,100.487
706.0,100.425
707.0,100.538
708.0,100.682
709.0,100.799
710.0,100.616
711.0,100.457
712.0,100.743
713.0,100.895
714.0,100.523
715.0,100.552
716.0,101.108
717.0,101.092
718.0,100.721
719.0,100.824
720.0,100.865
721.0,100.526
722.0,100.508
723.0,100.668
724.0,100.544
725.0,100.435
726.0,100.387
727.0,100.289
728.0,100.476
729.0,100.748
730.0,100.667
731.0,100.601
732.0,100.508
733.0,100.301
734.0,100.693
735.0,101.281
736.0,101.085
737.0,100.675
738.0,100.803
739.0,100.884
740.0,100.596
741.0,100.549
742.0,100.768
743.0,100.969
744.0,101.248
745.0,101.331
746.0,101.069
747.0,XXX.XXX
748.0,XXX.XXX
749.0,XXX.XXX
750.0,XXX.XXX
