Batch,scan003
Instrument ID,084303
Data Mode,%T
Sample,Sample001
Cycle,Cycle01
Date Collected,16/10/2025
Time Collected,05:31:27
Entries,Data Points
nm,%T
390.0,XXX.XXX
391.0,XXX.XXX
392.0,XXX.XXX
393.0,XXX.XXX
394.0,48.468
395.0,48.164
396.0,48.868
397.0,48.585
398.0,48.145
399.0,48.823
400.0,51.351
401.0,53.045
402.0,51.986
403.0,51.734
404.0,53.306
405.0,53.616
406.0,53.016
407.0,53.672
408.0,55.116
409.0,55.121
410.0,53.270
411.0,52.420
412.0,54.450
413.0,57.768
414.0,59.363
415.0,58.270
416.0,57.927
417.0,60.014
418.0,60.952
419.0,59.066
420.0,57.491
421.0,59.451
422.0,62.217
423.0,62.098
424.0,61.893
425.0,62.581
426.0,61.843
427.0,61.209
428.0,61.450
429.0,61.180
430.0,62.100
431.0,64.116
432.0,63.738
433.0,62.626
434.0,63.609
435.0,64.689
436.0,64.934
437.0,65.303
438.0,65.786
439.0,66.146
440.0,66.099
441.0,66.366
442.0,67.413
443.0,67.411
444.0,66.782
445.0,67.688
446.0,69.415
447.0,70.095
448.0,69.386
449.0,69.016
450.0,69.859
451.0,71.135
452.0,71.860
453.0,71.423
454.0,71.368
455.0,71.985
456.0,71.694
457.0,71.644
458.0,72.543
459.0,72.609
460.0,72.362
461.0,73.444
462.0,74.096
463.0,73.227
464.0,73.174
465.0,74.166
466.0,74.394
467.0,74.198
468.0,74.044
469.0,73.803
470.0,74.264
471.0,75.053
472.0,75.381
473.0,75.363
474.0,75.217
475.0,75.324
476.0,75.669
477.0,76.434
478.0,77.293
479.0,77.266
480.0,77.010
481.0,77.312
482.0,77.390
483.0,77.082
484.0,77.302
485.0,78.018
486.0,78.423
487.0,78.762
488.0,79.340
489.0,79.281
490.0,79.017
491.0,79.482
492.0,79.237
493.0,78.243
494.0,78.938
495.0,80.669
496.0,80.636
497.0,79.472
498.0,79.793
499.0,81.287
500.0,81.633
501.0,81.013
502.0,81.444
503.0,82.297
504.0,81.689
505.0,80.551
506.0,80.794
507.0,82.158
508.0,82.678
509.0,81.797
510.0,81.260
511.0,81.668
512.0,82.227
513.0,82.768
514.0,82.855
515.0,82.259
516.0,82.006
517.0,82.547
518.0,83.010
519.0,83.100
520.0,83.222
521.0,83.160
522.0,83.083
523.0,83.400
524.0,83.294
525.0,82.775
526.0,83.056
527.0,83.807
528.0,84.268
529.0,84.501
530.0,84.433
531.0,84.168
532.0,83.771
533.0,83.606
534.0,84.087
535.0,84.461
536.0,84.743
537.0,85.301
538.0,85.108
539.0,84.489
540.0,84.471
541.0,84.514
542.0,84.655
543.0,85.403
544.0,86.024
545.0,85.736
546.0,85.097
547.0,84.998
548.0,85.316
549.0,85.757
550.0,86.166
551.0,85.961
552.0,85.218
553.0,84.889
554.0,85.143
555.0,85.451
556.0,86.078
557.0,86.872
558.0,86.513
559.0,85.538
560.0,85.756
561.0,86.251
562.0,85.812
563.0,85.932
564.0,86.996
565.0,87.412
566.0,86.764
567.0,85.781
568.0,85.176
569.0,85.437
570.0,86.442
571.0,86.742
572.0,86.148
573.0,86.310
574.0,86.723
575.0,86.631
576.0,86.553
577.0,86.194
578.0,86.151
579.0,86.965
580.0,87.528
581.0,87.460
582.0,87.189
583.0,87.144
584.0,87.450
585.0,87.524
586.0,87.596
587.0,87.943
588.0,87.785
589.0,87.320
590.0,87.331
591.0,87.611
592.0,87.466
593.0,86.937
594.0,87.032
595.0,87.748
596.0,87.933
597.0,87.607
598.0,87.511
599.0,87.660
600.0,87.851
601.0,88.007
602.0,88.077
603.0,88.044
604.0,87.990
605.0,88.059
606.0,88.149
607.0,88.106
608.0,87.893
609.0,87.875
610.0,88.018
611.0,87.385
612.0,86.802
613.0,87.500
614.0,88.258
615.0,88.222
616.0,87.712
617.0,87.042
618.0,86.461
619.0,86.297
620.0,86.636
621.0,86.199
622.0,85.425
623.0,86.211
624.0,87.537
625.0,87.674
626.0,87.419
627.0,87.953
628.0,86.405
629.0,81.883
630.0,80.534
631.0,83.059
632.0,84.179
633.0,84.381
634.0,85.539
635.0,86.448
636.0,86.921
637.0,86.781
638.0,85.983
639.0,85.772
640.0,86.599
641.0,87.135
642.0,86.230
643.0,86.375
644.0,87.441
645.0,85.895
646.0,85.146
647.0,87.511
648.0,88.209
649.0,87.326
650.0,87.697
651.0,87.410
652.0,86.034
653.0,86.056
654.0,86.998
655.0,86.992
656.0,87.160
657.0,87.944
658.0,87.110
659.0,85.772
660.0,85.844
661.0,86.189
662.0,86.345
663.0,84.965
664.0,82.511
665.0,82.530
666.0,83.568
667.0,83.902
668.0,85.885
669.0,87.972
670.0,87.515
671.0,86.782
672.0,87.226
673.0,87.172
674.0,87.039
675.0,87.824
676.0,87.836
677.0,87.265
678.0,87.663
679.0,87.516
680.0,86.672
681.0,87.279
682.0,88.511
683.0,88.270
684.0,86.959
685.0,86.662
686.0,87.457
687.0,87.212
688.0,86.492
689.0,86.354
690.0,85.540
691.0,85.741
692.0,88.001
693.0,89.244
694.0,89.044
695.0,88.336
696.0,87.266
697.0,87.150
698.0,87.967
699.0,88.480
700.0,87.928
701.0,87.245
702.0,88.483
703.0,90.720
704.0,91.746
705.0,91.737
706.0,91.791
707.0,92.018
708.0,92.272
709.0,93.083
710.0,93.899
711.0,94.509
712.0,95.476
713.0,93.317
714.0,87.904
715.0,85.710
716.0,84.393
717.0,80.683
718.0,81.708
719.0,86.047
720.0,86.489
721.0,86.573
722.0,87.252
723.0,84.847
724.0,85.083
725.0,90.022
726.0,93.366
727.0,95.809
728.0,98.585
729.0,99.201
730.0,98.970
731.0,100.262
732.0,102.548
733.0,102.452
734.0,99.969
735.0,99.031
736.0,99.860
737.0,101.260
738.0,102.311
739.0,102.172
740.0,102.398
741.0,103.135
742.0,103.324
743.0,103.280
744.0,103.533
745.0,103.997
746.0,103.748
747.0,XXX.XXX
748.0,XXX.XXX
749.0,XXX.XXX
750.0,XXX.XXX
