Batch,scan003
Instrument ID,084303
Data Mode,%T
Sample,Sample001
Cycle,Cycle01
Date Collected,03/10/2025
Time Collected,06:52:36
Entries,Data Points
nm,%T
390.0,XXX.XXX
391.0,XXX.XXX
392.0,XXX.XXX
393.0,XXX.XXX
394.0,22.571
395.0,23.090
396.0,24.227
397.0,23.993
398.0,22.864
399.0,24.090
400.0,26.375
401.0,26.112
402.0,25.601
403.0,27.138
404.0,27.921
405.0,27.516
406.0,28.063
407.0,29.311
408.0,30.091
409.0,30.586
410.0,31.717
411.0,33.023
412.0,32.619
413.0,31.424
414.0,32.305
415.0,34.131
416.0,34.631
417.0,34.483
418.0,34.411
419.0,34.658
420.0,35.579
421.0,36.440
422.0,36.458
423.0,36.372
424.0,36.751
425.0,36.914
426.0,37.199
427.0,38.315
428.0,39.075
429.0,38.743
430.0,38.695
431.0,39.740
432.0,40.838
433.0,41.122
434.0,41.353
435.0,41.870
436.0,41.995
437.0,42.148
438.0,42.611
439.0,42.874
440.0,43.385
441.0,44.331
442.0,45.072
443.0,45.298
444.0,45.087
445.0,45.338
446.0,46.030
447.0,45.956
448.0,45.970
449.0,47.083
450.0,47.713
451.0,47.213
452.0,47.481
453.0,48.551
454.0,48.606
455.0,48.439
456.0,49.073
457.0,49.599
458.0,50.024
459.0,50.325
460.0,50.355
461.0,50.971
462.0,51.330
463.0,50.840
464.0,51.225
465.0,52.210
466.0,52.243
467.0,51.912
468.0,52.431
469.0,53.494
470.0,53.557
471.0,53.099
472.0,53.984
473.0,55.107
474.0,54.887
475.0,54.196
476.0,54.145
477.0,55.106
478.0,56.082
479.0,56.155
480.0,56.740
481.0,57.843
482.0,57.464
483.0,56.471
484.0,56.596
485.0,56.987
486.0,57.135
487.0,57.617
488.0,57.989
489.0,58.230
490.0,58.763
491.0,59.042
492.0,59.277
493.0,59.659
494.0,59.731
495.0,60.090
496.0,60.568
497.0,60.409
498.0,60.426
499.0,60.941
500.0,60.893
501.0,60.588
502.0,61.307
503.0,62.329
504.0,62.408
505.0,62.064
506.0,62.031
507.0,62.261
508.0,62.457
509.0,62.540
510.0,62.986
511.0,63.678
512.0,63.850
513.0,63.719
514.0,63.597
515.0,63.748
516.0,64.769
517.0,65.526
518.0,64.904
519.0,64.121
520.0,64.228
521.0,65.041
522.0,65.932
523.0,66.160
524.0,65.937
525.0,65.995
526.0,66.314
527.0,66.579
528.0,66.589
529.0,66.359
530.0,66.532
531.0,67.132
532.0,67.183
533.0,67.021
534.0,67.463
535.0,68.014
536.0,68.151
537.0,67.839
538.0,67.440
539.0,67.522
540.0,68.065
541.0,68.649
542.0,68.802
543.0,68.558
544.0,68.744
545.0,69.332
546.0,69.408
547.0,69.223
548.0,69.375
549.0,69.410
550.0,69.248
551.0,69.462
552.0,69.817
553.0,69.951
554.0,70.027
555.0,69.985
556.0,70.100
557.0,70.434
558.0,70.326
559.0,70.463
560.0,71.392
561.0,71.724
562.0,71.356
563.0,71.211
564.0,71.196
565.0,71.496
566.0,71.858
567.0,71.675
568.0,71.473
569.0,71.479
570.0,71.485
571.0,71.807
572.0,72.298
573.0,72.495
574.0,72.500
575.0,72.315
576.0,72.262
577.0,73.096
578.0,73.680
579.0,73.130
580.0,73.000
581.0,73.509
582.0,73.712
583.0,73.765
584.0,73.729
585.0,73.559
586.0,73.562
587.0,73.819
588.0,73.988
589.0,73.799
590.0,73.736
591.0,74.122
592.0,74.264
593.0,74.025
594.0,74.070
595.0,74.359
596.0,74.604
597.0,74.755
598.0,74.580
599.0,74.335
600.0,74.474
601.0,74.642
602.0,74.621
603.0,74.725
604.0,74.841
605.0,74.845
606.0,74.915
607.0,75.034
608.0,75.102
609.0,75.120
610.0,75.191
611.0,75.396
612.0,75.570
613.0,75.582
614.0,75.603
615.0,75.713
616.0,75.744
617.0,75.742
618.0,75.766
619.0,75.655
620.0,75.540
621.0,75.667
622.0,75.873
623.0,75.956
624.0,75.980
625.0,76.059
626.0,76.139
627.0,76.215
628.0,76.395
629.0,76.458
630.0,76.273
631.0,76.116
632.0,76.076
633.0,76.203
634.0,76.543
635.0,76.732
636.0,76.689
637.0,76.765
638.0,76.852
639.0,76.790
640.0,76.785
641.0,76.928
642.0,77.194
643.0,77.394
644.0,77.382
645.0,77.302
646.0,77.246
647.0,77.261
648.0,77.162
649.0,76.983
650.0,77.265
651.0,77.644
652.0,77.573
653.0,77.568
654.0,77.764
655.0,77.734
656.0,77.577
657.0,77.650
658.0,77.916
659.0,77.990
660.0,77.748
661.0,77.555
662.0,77.642
663.0,77.857
664.0,78.060
665.0,78.193
666.0,78.218
667.0,78.194
668.0,78.246
669.0,78.390
670.0,78.455
671.0,78.324
672.0,78.231
673.0,78.444
674.0,78.727
675.0,78.779
676.0,78.565
677.0,78.242
678.0,78.165
679.0,78.289
680.0,78.365
681.0,78.664
682.0,79.051
683.0,79.014
684.0,78.827
685.0,78.699
686.0,78.509
687.0,78.538
688.0,78.793
689.0,78.911
690.0,78.849
691.0,78.775
692.0,78.733
693.0,78.676
694.0,78.731
695.0,78.941
696.0,79.017
697.0,78.959
698.0,79.016
699.0,79.075
700.0,78.900
701.0,78.585
702.0,78.579
703.0,78.948
704.0,79.078
705.0,78.916
706.0,79.020
707.0,79.188
708.0,79.066
709.0,78.965
710.0,78.905
711.0,78.876
712.0,79.125
713.0,79.211
714.0,79.028
715.0,79.200
716.0,79.454
717.0,79.274
718.0,78.940
719.0,78.862
720.0,79.081
721.0,79.212
722.0,79.174
723.0,79.259
724.0,79.491
725.0,79.651
726.0,79.444
727.0,79.157
728.0,79.193
729.0,79.340
730.0,79.522
731.0,79.476
732.0,79.229
733.0,79.451
734.0,79.769
735.0,79.568
736.0,79.341
737.0,79.513
738.0,79.725
739.0,79.644
740.0,79.538
741.0,79.509
742.0,79.365
743.0,79.278
744.0,79.357
745.0,79.370
746.0,79.202
747.0,XXX.XXX
748.0,XXX.XXX
749.0,XXX.XXX
750.0,XXX.XXX
