Batch,scan003
Instrument ID,084303
Data Mode,%T
Sample,Sample001
Cycle,Cycle01
Date Collected,19/06/2025
Time Collected,03:50:25
Entries,Data Points
nm,%T
390.0,XXX.XXX
391.0,XXX.XXX
392.0,XXX.XXX
393.0,XXX.XXX
394.0,98.119
395.0,96.999
396.0,96.075
397.0,95.335
398.0,96.572
399.0,97.934
400.0,98.030
401.0,98.261
402.0,99.989
403.0,102.758
404.0,101.727
405.0,97.140
406.0,95.348
407.0,95.456
408.0,95.723
409.0,99.411
410.0,102.524
411.0,99.691
412.0,96.247
413.0,96.498
414.0,97.516
415.0,98.042
416.0,99.441
417.0,101.543
418.0,102.054
419.0,99.256
420.0,94.965
421.0,94.008
422.0,97.175
423.0,98.988
424.0,97.658
425.0,95.946
426.0,95.962
427.0,98.804
428.0,101.047
429.0,99.328
430.0,96.481
431.0,96.595
432.0,99.665
433.0,101.447
434.0,99.866
435.0,97.933
436.0,98.284
437.0,99.659
438.0,100.449
439.0,101.311
440.0,101.699
441.0,100.189
442.0,97.948
443.0,97.457
444.0,98.269
445.0,98.274
446.0,98.324
447.0,99.059
448.0,99.503
449.0,100.293
450.0,100.862
451.0,100.101
452.0,99.359
453.0,99.022
454.0,98.823
455.0,99.296
456.0,98.725
457.0,96.437
458.0,96.158
459.0,98.677
460.0,100.567
461.0,100.971
462.0,100.877
463.0,99.786
464.0,98.131
465.0,98.521
466.0,100.341
467.0,100.528
468.0,99.554
469.0,99.446
470.0,100.118
471.0,99.816
472.0,98.416
473.0,98.028
474.0,98.895
475.0,99.486
476.0,99.676
477.0,99.697
478.0,99.306
479.0,99.075
480.0,99.118
481.0,98.990
482.0,99.238
483.0,99.632
484.0,99.145
485.0,99.216
486.0,99.830
487.0,98.134
488.0,96.658
489.0,98.290
490.0,99.096
491.0,98.265
492.0,99.052
493.0,99.831
494.0,98.664
495.0,98.248
496.0,99.247
497.0,99.486
498.0,99.734
499.0,100.525
500.0,100.005
501.0,98.995
502.0,99.078
503.0,99.595
504.0,99.626
505.0,98.787
506.0,98.408
507.0,99.239
508.0,99.316
509.0,98.248
510.0,97.901
511.0,98.724
512.0,99.581
513.0,99.666
514.0,99.270
515.0,98.987
516.0,98.902
517.0,98.952
518.0,99.172
519.0,99.438
520.0,99.704
521.0,99.834
522.0,99.381
523.0,98.649
524.0,98.373
525.0,98.326
526.0,98.388
527.0,98.890
528.0,99.383
529.0,99.455
530.0,99.187
531.0,98.896
532.0,99.092
533.0,99.371
534.0,99.302
535.0,99.276
536.0,99.205
537.0,98.945
538.0,98.788
539.0,99.015
540.0,99.585
541.0,99.921
542.0,99.950
543.0,99.855
544.0,99.447
545.0,99.319
546.0,99.818
547.0,99.858
548.0,99.423
549.0,99.421
550.0,99.373
551.0,99.148
552.0,99.323
553.0,99.488
554.0,99.090
555.0,98.499
556.0,98.567
557.0,99.086
558.0,99.240
559.0,99.255
560.0,99.350
561.0,99.163
562.0,98.801
563.0,98.870
564.0,99.316
565.0,99.445
566.0,99.118
567.0,98.786
568.0,99.065
569.0,99.569
570.0,99.600
571.0,99.879
572.0,100.372
573.0,100.190
574.0,99.725
575.0,99.354
576.0,99.023
577.0,98.827
578.0,98.791
579.0,99.085
580.0,99.438
581.0,99.585
582.0,99.599
583.0,99.461
584.0,99.589
585.0,99.803
586.0,99.567
587.0,99.600
588.0,99.954
589.0,99.596
590.0,99.103
591.0,99.427
592.0,99.854
593.0,99.722
594.0,99.430
595.0,99.379
596.0,99.451
597.0,99.489
598.0,99.480
599.0,99.484
600.0,99.565
601.0,99.441
602.0,99.166
603.0,99.359
604.0,99.714
605.0,99.559
606.0,99.378
607.0,99.597
608.0,99.929
609.0,99.978
610.0,99.501
611.0,99.089
612.0,99.165
613.0,99.386
614.0,99.736
615.0,99.869
616.0,99.598
617.0,99.672
618.0,99.834
619.0,99.559
620.0,99.377
621.0,99.385
622.0,99.512
623.0,99.810
624.0,99.734
625.0,99.307
626.0,99.175
627.0,99.306
628.0,99.411
629.0,99.377
630.0,99.307
631.0,99.522
632.0,99.714
633.0,99.495
634.0,99.319
635.0,99.482
636.0,99.704
637.0,99.764
638.0,99.940
639.0,100.243
640.0,99.960
641.0,99.359
642.0,99.209
643.0,99.338
644.0,99.629
645.0,99.881
646.0,99.772
647.0,99.590
648.0,99.390
649.0,99.282
650.0,99.614
651.0,99.925
652.0,99.777
653.0,99.472
654.0,99.498
655.0,99.920
656.0,100.090
657.0,99.818
658.0,99.572
659.0,99.428
660.0,99.495
661.0,99.796
662.0,99.814
663.0,99.577
664.0,99.547
665.0,99.741
666.0,99.994
667.0,99.890
668.0,99.335
669.0,99.157
670.0,99.547
671.0,99.757
672.0,99.435
673.0,99.143
674.0,99.599
675.0,100.052
676.0,99.693
677.0,99.348
678.0,99.569
679.0,99.945
680.0,100.052
681.0,99.852
682.0,99.794
683.0,99.893
684.0,99.741
685.0,99.541
686.0,99.591
687.0,99.689
688.0,99.690
689.0,99.625
690.0,99.520
691.0,99.519
692.0,99.642
693.0,99.703
694.0,99.777
695.0,99.900
696.0,99.817
697.0,99.573
698.0,99.432
699.0,99.593
700.0,99.862
701.0,99.710
702.0,99.404
703.0,99.434
704.0,99.613
705.0,99.676
706.0,99.522
707.0,99.377
708.0,99.526
709.0,99.628
710.0,99.325
711.0,99.089
712.0,99.226
713.0,99.390
714.0,99.651
715.0,99.941
716.0,99.873
717.0,99.625
718.0,99.479
719.0,99.547
720.0,99.660
721.0,99.484
722.0,99.322
723.0,99.432
724.0,99.529
725.0,99.603
726.0,99.504
727.0,99.126
728.0,99.090
729.0,99.378
730.0,99.383
731.0,99.377
732.0,99.740
733.0,100.029
734.0,99.654
735.0,98.971
736.0,98.927
737.0,99.327
738.0,99.491
739.0,99.662
740.0,99.940
741.0,99.950
742.0,99.572
743.0,99.327
744.0,99.817
745.0,100.428
746.0,100.400
747.0,XXX.XXX
748.0,XXX.XXX
749.0,XXX.XXX
750.0,XXX.XXX
