Batch	scan006
Instrument ID	084303
Data Mode	%T
Sample	Sample001
Cycle	Cycle01
Date Collected	18/02/2025
Time Collected	11:04:07
Entries	Data Points
nm	%T
390.0	XXX.XXX
391.0	XXX.XXX
392.0	XXX.XXX
393.0	XXX.XXX
394.0	70.454
395.0	74.328
396.0	74.831
397.0	72.808
398.0	72.763
399.0	74.194
400.0	75.714
401.0	77.863
402.0	78.060
403.0	74.964
404.0	73.242
405.0	75.048
406.0	77.048
407.0	77.155
408.0	76.208
409.0	76.494
410.0	78.169
411.0	78.932
412.0	78.773
413.0	78.241
414.0	77.762
415.0	78.606
416.0	79.493
417.0	79.339
418.0	79.654
419.0	80.755
420.0	82.143
421.0	83.116
422.0	82.484
423.0	82.038
424.0	83.190
425.0	82.736
426.0	80.549
427.0	81.358
428.0	85.269
429.0	87.510
430.0	86.131
431.0	84.246
432.0	84.560
433.0	85.641
434.0	86.839
435.0	87.878
436.0	86.743
437.0	84.691
438.0	84.534
439.0	86.024
440.0	87.442
441.0	87.509
442.0	86.181
443.0	85.260
444.0	85.584
445.0	85.933
446.0	86.436
447.0	87.366
448.0	87.239
449.0	86.710
450.0	87.770
451.0	89.000
452.0	89.339
453.0	90.262
454.0	90.862
455.0	90.063
456.0	88.903
457.0	87.733
458.0	87.543
459.0	88.681
460.0	89.250
461.0	89.260
462.0	89.862
463.0	90.385
464.0	90.272
465.0	89.852
466.0	89.521
467.0	89.485
468.0	89.400
469.0	89.382
470.0	89.895
471.0	89.760
472.0	88.643
473.0	88.670
474.0	89.724
475.0	90.124
476.0	90.112
477.0	89.841
478.0	89.379
479.0	89.329
480.0	89.679
481.0	90.420
482.0	90.968
483.0	90.616
484.0	90.543
485.0	91.094
486.0	90.885
487.0	90.215
488.0	90.013
489.0	90.541
490.0	91.319
491.0	91.319
492.0	91.286
493.0	91.699
494.0	91.379
495.0	90.434
496.0	90.255
497.0	91.195
498.0	91.904
499.0	91.514
500.0	91.061
501.0	91.475
502.0	91.971
503.0	91.474
504.0	90.505
505.0	90.676
506.0	92.138
507.0	93.189
508.0	93.020
509.0	92.151
510.0	91.339
511.0	91.352
512.0	91.807
513.0	92.127
514.0	92.447
515.0	92.312
516.0	92.209
517.0	93.067
518.0	93.485
519.0	92.600
520.0	92.087
521.0	92.773
522.0	93.382
523.0	93.192
524.0	92.817
525.0	92.774
526.0	93.243
527.0	93.621
528.0	93.288
529.0	93.237
530.0	93.902
531.0	93.944
532.0	93.184
533.0	92.828
534.0	93.077
535.0	93.295
536.0	93.347
537.0	93.286
538.0	93.072
539.0	93.043
540.0	93.514
541.0	94.131
542.0	94.190
543.0	93.880
544.0	93.657
545.0	93.417
546.0	93.430
547.0	93.462
548.0	93.435
549.0	93.972
550.0	94.130
551.0	93.563
552.0	93.659
553.0	94.143
554.0	94.386
555.0	94.841
556.0	94.839
557.0	94.377
558.0	94.657
559.0	94.991
560.0	94.656
561.0	94.268
562.0	93.979
563.0	94.043
564.0	94.396
565.0	94.550
566.0	94.804
567.0	94.971
568.0	94.577
569.0	94.651
570.0	95.627
571.0	95.704
572.0	94.733
573.0	94.806
574.0	95.435
575.0	95.022
576.0	94.642
577.0	95.062
578.0	95.082
579.0	94.378
580.0	93.950
581.0	94.181
582.0	94.614
583.0	94.844
584.0	94.715
585.0	94.646
586.0	94.860
587.0	94.864
588.0	94.716
589.0	94.664
590.0	94.717
591.0	94.821
592.0	94.714
593.0	94.787
594.0	95.129
595.0	95.087
596.0	94.974
597.0	95.117
598.0	95.156
599.0	95.228
600.0	95.320
601.0	95.033
602.0	94.732
603.0	95.046
604.0	95.610
605.0	95.476
606.0	94.854
607.0	94.856
608.0	95.200
609.0	95.025
610.0	94.733
611.0	94.817
612.0	95.029
613.0	94.991
614.0	94.688
615.0	94.518
616.0	94.717
617.0	95.084
618.0	95.509
619.0	95.781
620.0	95.660
621.0	95.383
622.0	95.061
623.0	94.972
624.0	95.301
625.0	95.487
626.0	95.430
627.0	95.367
628.0	95.385
629.0	95.434
630.0	95.271
631.0	95.276
632.0	95.446
633.0	95.268
634.0	95.243
635.0	95.507
636.0	95.463
637.0	95.240
638.0	95.028
639.0	94.848
640.0	95.075
641.0	95.600
642.0	95.767
643.0	95.475
644.0	95.243
645.0	95.393
646.0	95.596
647.0	95.509
648.0	95.467
649.0	95.640
650.0	95.587
651.0	95.297
652.0	95.314
653.0	95.556
654.0	95.545
655.0	95.559
656.0	95.772
657.0	95.756
658.0	95.515
659.0	95.444
660.0	95.556
661.0	95.526
662.0	95.486
663.0	95.670
664.0	95.794
665.0	95.810
666.0	95.874
667.0	95.708
668.0	95.334
669.0	95.316
670.0	95.412
671.0	95.253
672.0	95.311
673.0	95.639
674.0	95.996
675.0	96.133
676.0	95.737
677.0	95.331
678.0	95.423
679.0	95.655
680.0	95.698
681.0	95.561
682.0	95.408
683.0	95.407
684.0	95.558
685.0	95.642
686.0	95.655
687.0	95.809
688.0	95.709
689.0	95.439
690.0	95.790
691.0	96.225
692.0	95.996
693.0	95.689
694.0	95.593
695.0	95.484
696.0	95.526
697.0	95.497
698.0	95.428
699.0	95.920
700.0	96.359
701.0	96.169
702.0	95.951
703.0	95.743
704.0	95.517
705.0	95.587
706.0	95.776
707.0	95.914
708.0	95.866
709.0	95.758
710.0	95.814
711.0	95.810
712.0	95.734
713.0	95.497
714.0	95.241
715.0	95.547
716.0	95.974
717.0	95.799
718.0	95.545
719.0	95.771
720.0	95.853
721.0	95.524
722.0	95.507
723.0	95.820
724.0	95.995
725.0	96.095
726.0	95.973
727.0	95.571
728.0	95.464
729.0	95.693
730.0	95.603
731.0	95.254
732.0	95.271
733.0	95.425
734.0	95.503
735.0	95.871
736.0	95.911
737.0	95.246
738.0	95.100
739.0	95.744
740.0	96.012
741.0	95.657
742.0	95.348
743.0	95.502
744.0	95.869
745.0	95.944
746.0	95.791
747.0	XXX.XXX
748.0	XXX.XXX
749.0	XXX.XXX
750.0	XXX.XXX
