Batch	scan004
Instrument ID	084303
Data Mode	%T
Sample	Sample001
Cycle	Cycle01
Date Collected	18/06/2025
Time Collected	04:19:57
Entries	Data Points
nm	%T
390.0	XXX.XXX
390.5	XXX.XXX
391.0	XXX.XXX
391.5	XXX.XXX
392.0	XXX.XXX
392.5	XXX.XXX
393.0	XXX.XXX
393.5	XXX.XXX
394.0	100.784
394.5	99.634
395.0	99.481
395.5	100.125
396.0	101.058
396.5	102.159
397.0	103.547
397.5	104.931
398.0	105.443
398.5	104.286
399.0	101.703
399.5	99.205
400.0	98.338
400.5	99.168
401.0	100.420
401.5	101.107
402.0	101.407
402.5	101.877
403.0	102.382
403.5	102.231
404.0	101.106
404.5	99.427
405.0	97.899
405.5	97.079
406.0	97.282
406.5	98.433
407.0	100.014
407.5	101.407
408.0	102.255
408.5	102.505
409.0	102.358
409.5	102.195
410.0	102.227
410.5	102.262
411.0	102.138
411.5	102.176
412.0	102.705
412.5	103.365
413.0	103.437
413.5	102.791
414.0	102.038
414.5	101.719
415.0	101.749
415.5	101.702
416.0	101.325
416.5	100.634
417.0	99.751
417.5	98.846
418.0	98.190
418.5	98.095
419.0	98.662
419.5	99.559
420.0	100.196
420.5	100.296
421.0	100.158
421.5	100.259
422.0	100.775
422.5	101.567
423.0	102.369
423.5	102.816
424.0	102.511
424.5	101.364
425.0	99.896
425.5	98.937
426.0	98.825
426.5	99.074
427.0	99.172
427.5	99.547
428.0	101.181
428.5	104.091
429.0	106.585
429.5	106.191
430.0	101.504
430.5	93.895
431.0	87.526
431.5	86.417
432.0	90.689
432.5	96.287
433.0	98.751
433.5	96.975
434.0	93.525
434.5	91.958
435.0	93.872
435.5	97.934
436.0	101.190
436.5	101.399
437.0	98.755
437.5	95.557
438.0	93.983
438.5	94.315
439.0	95.480
439.5	96.664
440.0	97.802
440.5	98.983
441.0	100.074
441.5	100.885
442.0	101.271
442.5	101.158
443.0	100.707
443.5	100.351
444.0	100.394
444.5	100.651
445.0	100.764
445.5	100.729
446.0	100.783
446.5	100.930
447.0	100.992
447.5	101.043
448.0	101.417
448.5	102.206
449.0	102.987
449.5	103.218
450.0	102.810
450.5	102.137
451.0	101.512
451.5	100.929
452.0	100.377
452.5	100.048
453.0	100.059
453.5	100.232
454.0	100.307
454.5	100.234
455.0	100.178
455.5	100.368
456.0	100.912
456.5	101.616
457.0	102.075
457.5	102.074
458.0	101.827
458.5	101.673
459.0	101.640
459.5	101.475
460.0	101.077
460.5	100.661
461.0	100.425
461.5	100.288
462.0	100.111
462.5	99.981
463.0	100.074
463.5	100.337
464.0	100.521
464.5	100.489
465.0	100.367
465.5	100.373
466.0	100.593
466.5	100.971
467.0	101.393
467.5	101.671
468.0	101.558
468.5	100.995
469.0	100.254
469.5	99.714
470.0	99.516
470.5	99.538
471.0	99.632
471.5	99.762
472.0	99.926
472.5	100.102
473.0	100.312
473.5	100.639
474.0	101.043
474.5	101.293
475.0	101.235
475.5	101.050
476.0	101.057
476.5	101.289
477.0	101.476
477.5	101.434
478.0	101.297
478.5	101.291
479.0	101.402
479.5	101.391
480.0	101.111
480.5	100.732
481.0	100.577
481.5	100.754
482.0	101.040
482.5	101.163
483.0	101.038
483.5	100.722
484.0	100.326
484.5	100.033
485.0	100.003
485.5	100.168
486.0	100.272
486.5	100.153
487.0	99.896
487.5	99.708
488.0	99.724
488.5	99.947
489.0	100.293
489.5	100.664
490.0	100.974
490.5	101.125
491.0	100.994
491.5	100.545
492.0	99.940
492.5	99.459
493.0	99.297
493.5	99.464
494.0	99.853
494.5	100.293
495.0	100.584
495.5	100.623
496.0	100.480
496.5	100.302
497.0	100.188
497.5	100.202
498.0	100.404
498.5	100.753
499.0	101.063
499.5	101.134
500.0	100.970
500.5	100.773
501.0	100.694
501.5	100.676
502.0	100.590
502.5	100.468
503.0	100.453
503.5	100.579
504.0	100.729
504.5	100.791
505.0	100.755
505.5	100.679
506.0	100.610
506.5	100.576
507.0	100.603
507.5	100.690
508.0	100.751
508.5	100.684
509.0	100.534
509.5	100.503
510.0	100.724
510.5	101.095
511.0	101.355
511.5	101.297
512.0	100.939
512.5	100.559
513.0	100.477
513.5	100.733
514.0	101.048
514.5	101.121
515.0	100.907
515.5	100.568
516.0	100.279
516.5	100.130
517.0	100.129
517.5	100.228
518.0	100.365
518.5	100.529
519.0	100.763
519.5	101.052
520.0	101.228
520.5	101.107
521.0	100.729
521.5	100.354
522.0	100.179
522.5	100.165
523.0	100.152
523.5	100.032
524.0	99.819
524.5	99.625
525.0	99.595
525.5	99.786
526.0	100.107
526.5	100.391
527.0	100.535
527.5	100.565
528.0	100.585
528.5	100.687
529.0	100.883
529.5	101.089
530.0	101.186
530.5	101.099
531.0	100.870
531.5	100.668
532.0	100.677
532.5	100.924
533.0	101.226
533.5	101.365
534.0	101.290
534.5	101.104
535.0	100.903
535.5	100.720
536.0	100.578
536.5	100.501
537.0	100.483
537.5	100.496
538.0	100.529
538.5	100.562
539.0	100.567
539.5	100.557
540.0	100.574
540.5	100.606
541.0	100.589
541.5	100.485
542.0	100.334
542.5	100.208
543.0	100.147
543.5	100.158
544.0	100.233
544.5	100.379
545.0	100.589
545.5	100.797
546.0	100.895
546.5	100.835
547.0	100.674
547.5	100.520
548.0	100.457
548.5	100.506
549.0	100.631
549.5	100.734
550.0	100.695
550.5	100.475
551.0	100.181
551.5	99.999
552.0	100.031
552.5	100.196
553.0	100.324
553.5	100.321
554.0	100.245
554.5	100.223
555.0	100.325
555.5	100.505
556.0	100.654
556.5	100.679
557.0	100.570
557.5	100.402
558.0	100.291
558.5	100.340
559.0	100.617
559.5	101.075
560.0	101.502
560.5	101.643
561.0	101.433
561.5	101.024
562.0	100.599
562.5	100.272
563.0	100.121
563.5	100.170
564.0	100.330
564.5	100.473
565.0	100.552
565.5	100.591
566.0	100.610
566.5	100.622
567.0	100.671
567.5	100.760
568.0	100.778
568.5	100.606
569.0	100.279
569.5	99.986
570.0	99.905
570.5	100.090
571.0	100.471
571.5	100.892
572.0	101.161
572.5	101.166
573.0	100.987
573.5	100.876
574.0	101.036
574.5	101.358
575.0	101.484
575.5	101.193
576.0	100.695
576.5	100.423
577.0	100.547
577.5	100.802
578.0	100.840
578.5	100.632
579.0	100.421
579.5	100.387
580.0	100.483
580.5	100.586
581.0	100.668
581.5	100.786
582.0	100.964
582.5	101.142
583.0	101.220
583.5	101.153
584.0	100.992
584.5	100.826
585.0	100.712
585.5	100.662
586.0	100.674
586.5	100.728
587.0	100.788
587.5	100.821
588.0	100.813
588.5	100.768
589.0	100.719
589.5	100.734
590.0	100.843
590.5	100.970
591.0	100.997
591.5	100.902
592.0	100.783
592.5	100.749
593.0	100.805
593.5	100.873
594.0	100.883
594.5	100.845
595.0	100.818
595.5	100.825
596.0	100.848
596.5	100.877
597.0	100.931
597.5	101.003
598.0	101.044
598.5	101.024
599.0	100.974
599.5	100.944
600.0	100.937
600.5	100.914
601.0	100.866
601.5	100.820
602.0	100.805
602.5	100.804
603.0	100.778
603.5	100.704
604.0	100.621
604.5	100.595
605.0	100.642
605.5	100.709
606.0	100.740
606.5	100.744
607.0	100.768
607.5	100.828
608.0	100.891
608.5	100.907
609.0	100.871
609.5	100.819
610.0	100.785
610.5	100.746
611.0	100.669
611.5	100.581
612.0	100.541
612.5	100.575
613.0	100.669
613.5	100.800
614.0	100.937
614.5	101.034
615.0	101.067
615.5	101.045
616.0	100.974
616.5	100.851
617.0	100.720
617.5	100.674
618.0	100.759
618.5	100.898
619.0	100.960
619.5	100.886
620.0	100.736
620.5	100.620
621.0	100.604
621.5	100.693
622.0	100.848
622.5	101.003
623.0	101.090
623.5	101.075
624.0	100.991
624.5	100.895
625.0	100.828
625.5	100.807
626.0	100.832
626.5	100.879
627.0	100.907
627.5	100.897
628.0	100.862
628.5	100.827
629.0	100.804
629.5	100.801
630.0	100.826
630.5	100.877
631.0	100.942
631.5	101.001
632.0	101.039
632.5	101.059
633.0	101.061
633.5	101.025
634.0	100.933
634.5	100.810
635.0	100.723
635.5	100.711
636.0	100.734
636.5	100.723
637.0	100.678
637.5	100.669
638.0	100.740
638.5	100.856
639.0	100.960
639.5	101.038
640.0	101.093
640.5	101.101
641.0	101.048
641.5	100.965
642.0	100.898
642.5	100.862
643.0	100.843
643.5	100.821
644.0	100.786
644.5	100.749
645.0	100.733
645.5	100.719
646.0	100.649
646.5	100.523
647.0	100.457
647.5	100.565
648.0	100.808
648.5	101.023
649.0	101.078
649.5	100.973
650.0	100.808
650.5	100.697
651.0	100.687
651.5	100.733
652.0	100.753
652.5	100.707
653.0	100.629
653.5	100.573
654.0	100.562
654.5	100.585
655.0	100.636
655.5	100.720
656.0	100.828
656.5	100.925
657.0	100.958
657.5	100.891
658.0	100.749
658.5	100.618
659.0	100.586
659.5	100.659
660.0	100.757
660.5	100.804
661.0	100.797
661.5	100.781
662.0	100.776
662.5	100.770
663.0	100.769
663.5	100.795
664.0	100.834
664.5	100.829
665.0	100.754
665.5	100.657
666.0	100.616
666.5	100.655
667.0	100.743
667.5	100.834
668.0	100.895
668.5	100.914
669.0	100.903
669.5	100.877
670.0	100.825
670.5	100.734
671.0	100.628
671.5	100.560
672.0	100.558
672.5	100.601
673.0	100.650
673.5	100.690
674.0	100.727
674.5	100.757
675.0	100.766
675.5	100.742
676.0	100.694
676.5	100.644
677.0	100.612
677.5	100.620
678.0	100.680
678.5	100.782
679.0	100.882
679.5	100.932
680.0	100.923
680.5	100.892
681.0	100.865
681.5	100.821
682.0	100.718
682.5	100.549
683.0	100.380
683.5	100.314
684.0	100.394
684.5	100.545
685.0	100.648
685.5	100.660
686.0	100.627
686.5	100.594
687.0	100.573
687.5	100.576
688.0	100.630
688.5	100.731
689.0	100.825
689.5	100.860
690.0	100.834
690.5	100.788
691.0	100.758
691.5	100.745
692.0	100.731
692.5	100.700
693.0	100.674
693.5	100.694
694.0	100.767
694.5	100.827
695.0	100.809
695.5	100.744
696.0	100.727
696.5	100.778
697.0	100.818
697.5	100.799
698.0	100.779
698.5	100.837
699.0	100.957
699.5	101.043
700.0	101.028
700.5	100.941
701.0	100.871
701.5	100.888
702.0	100.974
702.5	101.035
703.0	100.993
703.5	100.872
704.0	100.775
704.5	100.770
705.0	100.820
705.5	100.866
706.0	100.904
706.5	100.942
707.0	100.930
707.5	100.825
708.0	100.698
708.5	100.670
709.0	100.768
709.5	100.901
710.0	100.977
710.5	100.996
711.0	101.008
711.5	101.016
712.0	100.959
712.5	100.835
713.0	100.760
713.5	100.849
714.0	101.050
714.5	101.181
715.0	101.132
715.5	100.974
716.0	100.850
716.5	100.802
717.0	100.746
717.5	100.606
718.0	100.413
718.5	100.267
719.0	100.240
719.5	100.333
720.0	100.492
720.5	100.635
721.0	100.690
721.5	100.651
722.0	100.585
722.5	100.572
723.0	100.637
723.5	100.751
724.0	100.870
724.5	100.964
725.0	100.997
725.5	100.943
726.0	100.809
726.5	100.664
727.0	100.599
727.5	100.644
728.0	100.734
728.5	100.788
729.0	100.819
729.5	100.903
730.0	101.036
730.5	101.080
731.0	100.932
731.5	100.668
732.0	100.461
732.5	100.395
733.0	100.437
733.5	100.528
734.0	100.624
734.5	100.662
735.0	100.599
735.5	100.479
736.0	100.391
736.5	100.369
737.0	100.382
737.5	100.399
738.0	100.429
738.5	100.490
739.0	100.586
739.5	100.719
740.0	100.882
740.5	101.020
741.0	101.037
741.5	100.894
742.0	100.651
742.5	100.415
743.0	100.259
743.5	100.219
744.0	100.313
744.5	100.509
745.0	100.705
745.5	100.795
746.0	100.770
746.5	100.708
747.0	100.688
747.5	100.731
748.0	100.812
748.5	100.888
749.0	100.926
749.5	100.938
750.0	100.937
750.5	100.884
751.0	100.725
751.5	100.503
752.0	100.370
752.5	100.422
753.0	100.596
753.5	100.740
754.0	100.757
754.5	100.655
755.0	100.501
755.5	100.379
756.0	100.356
756.5	100.452
757.0	100.607
757.5	100.724
758.0	100.744
758.5	100.687
759.0	100.623
759.5	100.628
760.0	100.725
760.5	100.855
761.0	100.902
761.5	100.804
762.0	100.631
762.5	100.528
763.0	100.567
763.5	100.695
764.0	100.808
764.5	100.844
765.0	100.792
765.5	100.676
766.0	100.549
766.5	100.474
767.0	100.490
767.5	100.590
768.0	100.726
768.5	100.832
769.0	100.861
769.5	100.826
770.0	100.807
770.5	100.862
771.0	100.938
771.5	100.914
772.0	100.749
772.5	100.557
773.0	100.495
773.5	100.606
774.0	100.796
774.5	100.938
775.0	100.956
775.5	100.857
776.0	100.714
776.5	100.605
777.0	100.551
777.5	100.530
778.0	100.547
778.5	100.630
779.0	100.765
779.5	100.892
780.0	100.966
780.5	100.973
781.0	100.923
781.5	100.846
782.0	100.773
782.5	100.697
783.0	100.598
783.5	100.498
784.0	100.455
784.5	100.487
785.0	100.533
785.5	100.517
786.0	100.437
786.5	100.382
787.0	100.423
787.5	100.519
788.0	100.566
788.5	100.535
789.0	100.502
789.5	100.540
790.0	100.636
790.5	100.707
791.0	100.691
791.5	100.613
792.0	100.560
792.5	100.585
793.0	100.668
793.5	100.750
794.0	100.809
794.5	100.869
795.0	100.941
795.5	100.989
796.0	100.953
796.5	XXX.XXX
797.0	XXX.XXX
797.5	XXX.XXX
798.0	XXX.XXX
798.5	XXX.XXX
799.0	XXX.XXX
799.5	XXX.XXX
800.0	XXX.XXX
