Batch	scan004
Instrument ID	084303
Data Mode	%T
Sample	Sample001
Cycle	Cycle01
Date Collected	04/02/2025
Time Collected	11:52:21
Entries	Data Points
nm	%T
390.0	XXX.XXX
391.0	XXX.XXX
392.0	XXX.XXX
393.0	XXX.XXX
394.0	50.758
395.0	50.904
396.0	51.008
397.0	51.622
398.0	51.614
399.0	52.313
400.0	53.612
401.0	53.134
402.0	52.830
403.0	54.546
404.0	55.354
405.0	54.268
406.0	53.519
407.0	54.374
408.0	56.679
409.0	59.242
410.0	60.617
411.0	59.994
412.0	58.877
413.0	59.469
414.0	60.247
415.0	60.638
416.0	61.758
417.0	62.210
418.0	62.271
419.0	62.528
420.0	62.143
421.0	62.289
422.0	63.226
423.0	63.812
424.0	64.603
425.0	65.691
426.0	66.161
427.0	66.295
428.0	66.060
429.0	65.339
430.0	64.947
431.0	65.677
432.0	67.379
433.0	68.162
434.0	67.693
435.0	67.269
436.0	67.971
437.0	69.950
438.0	70.756
439.0	70.658
440.0	71.837
441.0	72.562
442.0	72.145
443.0	71.834
444.0	71.636
445.0	72.538
446.0	73.945
447.0	73.257
448.0	72.124
449.0	73.736
450.0	76.044
451.0	75.765
452.0	74.125
453.0	73.264
454.0	73.514
455.0	74.504
456.0	75.400
457.0	76.032
458.0	76.419
459.0	76.532
460.0	77.005
461.0	77.539
462.0	77.280
463.0	77.050
464.0	77.283
465.0	77.237
466.0	77.547
467.0	78.822
468.0	79.782
469.0	79.238
470.0	78.153
471.0	78.249
472.0	79.709
473.0	81.125
474.0	81.289
475.0	80.654
476.0	80.126
477.0	79.734
478.0	79.590
479.0	80.163
480.0	81.213
481.0	81.914
482.0	82.131
483.0	82.444
484.0	82.470
485.0	82.101
486.0	82.673
487.0	83.499
488.0	82.979
489.0	82.471
490.0	83.325
491.0	84.186
492.0	84.000
493.0	83.791
494.0	84.289
495.0	84.686
496.0	84.588
497.0	84.567
498.0	84.807
499.0	85.152
500.0	85.310
501.0	85.250
502.0	85.295
503.0	85.106
504.0	85.127
505.0	85.809
506.0	86.157
507.0	86.197
508.0	86.136
509.0	86.106
510.0	86.843
511.0	87.225
512.0	86.579
513.0	86.362
514.0	86.790
515.0	87.399
516.0	87.872
517.0	87.563
518.0	87.268
519.0	87.506
520.0	87.552
521.0	87.735
522.0	88.232
523.0	88.782
524.0	89.192
525.0	88.899
526.0	88.634
527.0	88.842
528.0	88.763
529.0	88.751
530.0	89.017
531.0	89.198
532.0	89.429
533.0	89.732
534.0	89.846
535.0	89.593
536.0	89.331
537.0	89.455
538.0	89.703
539.0	89.958
540.0	90.596
541.0	91.279
542.0	91.194
543.0	90.597
544.0	90.317
545.0	90.509
546.0	90.813
547.0	91.255
548.0	91.708
549.0	91.521
550.0	91.203
551.0	91.198
552.0	90.761
553.0	90.499
554.0	91.180
555.0	91.803
556.0	91.719
557.0	91.481
558.0	91.798
559.0	92.238
560.0	91.973
561.0	91.749
562.0	92.089
563.0	92.239
564.0	91.972
565.0	91.767
566.0	92.398
567.0	93.549
568.0	93.786
569.0	93.167
570.0	92.430
571.0	91.433
572.0	90.657
573.0	91.072
574.0	92.179
575.0	92.633
576.0	92.501
577.0	92.538
578.0	92.344
579.0	91.869
580.0	92.037
581.0	92.649
582.0	92.757
583.0	92.411
584.0	92.281
585.0	92.502
586.0	92.657
587.0	92.547
588.0	92.444
589.0	92.702
590.0	93.029
591.0	93.040
592.0	93.026
593.0	92.828
594.0	92.263
595.0	92.232
596.0	92.925
597.0	93.309
598.0	93.203
599.0	93.135
600.0	93.201
601.0	93.309
602.0	93.352
603.0	93.365
604.0	93.418
605.0	93.432
606.0	93.485
607.0	93.699
608.0	93.899
609.0	93.984
610.0	94.023
611.0	93.744
612.0	93.255
613.0	93.213
614.0	93.619
615.0	94.020
616.0	94.178
617.0	94.143
618.0	94.206
619.0	94.199
620.0	93.831
621.0	93.706
622.0	94.013
623.0	94.001
624.0	93.782
625.0	93.975
626.0	94.112
627.0	93.771
628.0	93.687
629.0	93.999
630.0	94.102
631.0	94.160
632.0	94.329
633.0	94.355
634.0	94.383
635.0	94.482
636.0	94.487
637.0	94.422
638.0	94.208
639.0	94.173
640.0	94.590
641.0	94.769
642.0	94.599
643.0	94.356
644.0	93.806
645.0	93.533
646.0	94.018
647.0	94.542
648.0	94.615
649.0	94.422
650.0	94.404
651.0	94.747
652.0	95.035
653.0	95.071
654.0	94.931
655.0	94.650
656.0	94.643
657.0	94.924
658.0	94.987
659.0	95.080
660.0	95.364
661.0	95.358
662.0	95.270
663.0	95.382
664.0	95.131
665.0	94.521
666.0	94.382
667.0	94.698
668.0	94.872
669.0	94.912
670.0	94.941
671.0	94.948
672.0	94.904
673.0	94.784
674.0	94.815
675.0	95.048
676.0	95.154
677.0	94.998
678.0	94.987
679.0	95.274
680.0	95.305
681.0	95.086
682.0	95.145
683.0	95.197
684.0	94.976
685.0	94.999
686.0	95.205
687.0	95.031
688.0	94.837
689.0	95.120
690.0	95.421
691.0	95.341
692.0	95.189
693.0	95.255
694.0	95.369
695.0	95.321
696.0	95.176
697.0	95.114
698.0	95.220
699.0	95.338
700.0	95.343
701.0	95.375
702.0	95.432
703.0	95.399
704.0	95.343
705.0	95.247
706.0	95.299
707.0	95.630
708.0	95.754
709.0	95.707
710.0	95.896
711.0	95.864
712.0	95.594
713.0	95.608
714.0	95.586
715.0	95.411
716.0	95.366
717.0	95.383
718.0	95.427
719.0	95.534
720.0	95.543
721.0	95.325
722.0	95.230
723.0	95.413
724.0	95.422
725.0	95.261
726.0	95.354
727.0	95.456
728.0	95.355
729.0	95.485
730.0	95.710
731.0	95.594
732.0	95.297
733.0	95.184
734.0	95.472
735.0	95.905
736.0	96.075
737.0	96.064
738.0	96.058
739.0	95.878
740.0	95.395
741.0	95.073
742.0	95.324
743.0	95.707
744.0	95.728
745.0	95.676
746.0	95.800
747.0	XXX.XXX
748.0	XXX.XXX
749.0	XXX.XXX
750.0	XXX.XXX
