Batch	scan002
Instrument ID	084303
Data Mode	%T
Sample	Sample001
Cycle	Cycle01
Date Collected	16/01/2025
Time Collected	03:04:05
Entries	Data Points
nm	%T
390.0	XXX.XXX
391.0	XXX.XXX
392.0	XXX.XXX
393.0	XXX.XXX
394.0	58.853
395.0	57.428
396.0	54.906
397.0	55.418
398.0	57.603
399.0	59.165
400.0	59.661
401.0	60.465
402.0	61.447
403.0	61.157
404.0	60.478
405.0	59.831
406.0	59.025
407.0	59.139
408.0	61.805
409.0	64.476
410.0	63.102
411.0	61.416
412.0	63.102
413.0	64.830
414.0	63.846
415.0	62.405
416.0	63.811
417.0	65.607
418.0	64.905
419.0	64.347
420.0	65.243
421.0	66.991
422.0	68.837
423.0	68.641
424.0	67.212
425.0	67.462
426.0	68.670
427.0	69.441
428.0	70.336
429.0	69.820
430.0	67.707
431.0	67.752
432.0	69.813
433.0	70.418
434.0	70.412
435.0	71.692
436.0	72.464
437.0	72.056
438.0	72.086
439.0	72.698
440.0	73.313
441.0	73.124
442.0	71.919
443.0	72.045
444.0	73.808
445.0	74.274
446.0	74.140
447.0	75.033
448.0	75.090
449.0	74.254
450.0	74.196
451.0	74.214
452.0	73.746
453.0	74.215
454.0	75.741
455.0	76.478
456.0	75.750
457.0	75.721
458.0	77.465
459.0	78.057
460.0	77.134
461.0	77.019
462.0	77.120
463.0	77.146
464.0	77.669
465.0	78.231
466.0	78.476
467.0	78.454
468.0	78.627
469.0	78.930
470.0	79.033
471.0	79.019
472.0	79.438
473.0	80.572
474.0	81.163
475.0	80.843
476.0	80.922
477.0	80.903
478.0	80.008
479.0	80.108
480.0	81.541
481.0	82.136
482.0	81.926
483.0	81.847
484.0	81.799
485.0	81.977
486.0	81.587
487.0	80.799
488.0	81.503
489.0	82.367
490.0	81.904
491.0	82.336
492.0	83.729
493.0	83.790
494.0	83.348
495.0	83.478
496.0	83.116
497.0	82.414
498.0	82.558
499.0	83.619
500.0	84.533
501.0	84.523
502.0	83.815
503.0	83.446
504.0	84.171
505.0	84.944
506.0	84.817
507.0	84.607
508.0	84.688
509.0	84.312
510.0	84.071
511.0	85.029
512.0	85.759
513.0	85.471
514.0	85.438
515.0	85.343
516.0	85.203
517.0	85.738
518.0	85.816
519.0	85.643
520.0	86.410
521.0	86.946
522.0	86.526
523.0	86.325
524.0	86.473
525.0	86.304
526.0	86.184
527.0	86.757
528.0	87.641
529.0	87.831
530.0	87.167
531.0	86.434
532.0	86.399
533.0	86.937
534.0	87.208
535.0	86.972
536.0	86.842
537.0	87.210
538.0	87.423
539.0	87.108
540.0	87.198
541.0	87.804
542.0	87.906
543.0	87.658
544.0	87.720
545.0	87.914
546.0	88.007
547.0	87.922
548.0	87.858
549.0	88.020
550.0	88.219
551.0	88.424
552.0	88.425
553.0	88.102
554.0	87.930
555.0	88.152
556.0	88.647
557.0	89.235
558.0	89.680
559.0	89.325
560.0	88.208
561.0	88.123
562.0	89.059
563.0	89.291
564.0	89.232
565.0	89.284
566.0	89.016
567.0	88.633
568.0	88.354
569.0	88.625
570.0	88.962
571.0	88.887
572.0	89.337
573.0	89.902
574.0	89.544
575.0	88.956
576.0	88.980
577.0	89.138
578.0	88.953
579.0	89.392
580.0	90.590
581.0	91.123
582.0	90.804
583.0	90.422
584.0	90.405
585.0	90.688
586.0	90.842
587.0	90.725
588.0	90.477
589.0	90.436
590.0	90.723
591.0	90.895
592.0	90.806
593.0	90.696
594.0	90.751
595.0	90.913
596.0	90.897
597.0	90.958
598.0	91.164
599.0	91.021
600.0	90.877
601.0	90.996
602.0	90.975
603.0	90.973
604.0	91.077
605.0	90.874
606.0	90.492
607.0	90.329
608.0	90.376
609.0	90.770
610.0	91.306
611.0	91.293
612.0	91.127
613.0	91.393
614.0	91.562
615.0	91.424
616.0	91.366
617.0	91.464
618.0	91.505
619.0	91.460
620.0	91.767
621.0	92.130
622.0	91.659
623.0	91.127
624.0	91.607
625.0	92.210
626.0	92.101
627.0	91.800
628.0	91.775
629.0	92.012
630.0	92.245
631.0	92.254
632.0	92.194
633.0	92.334
634.0	92.690
635.0	92.829
636.0	92.585
637.0	92.379
638.0	92.404
639.0	92.572
640.0	92.725
641.0	92.824
642.0	92.944
643.0	92.810
644.0	92.467
645.0	92.469
646.0	92.712
647.0	92.765
648.0	92.648
649.0	92.495
650.0	92.579
651.0	92.929
652.0	93.119
653.0	93.152
654.0	93.272
655.0	93.336
656.0	93.237
657.0	93.217
658.0	93.255
659.0	93.073
660.0	93.053
661.0	93.266
662.0	92.937
663.0	92.350
664.0	92.404
665.0	92.694
666.0	92.695
667.0	92.845
668.0	93.094
669.0	93.068
670.0	93.180
671.0	93.379
672.0	93.095
673.0	92.835
674.0	93.008
675.0	93.086
676.0	93.079
677.0	93.317
678.0	93.529
679.0	93.277
680.0	92.962
681.0	93.389
682.0	93.987
683.0	93.578
684.0	92.778
685.0	92.864
686.0	93.309
687.0	93.277
688.0	93.065
689.0	92.956
690.0	92.916
691.0	92.968
692.0	93.276
693.0	93.575
694.0	93.519
695.0	93.553
696.0	93.647
697.0	93.297
698.0	92.980
699.0	93.177
700.0	93.466
701.0	93.538
702.0	93.545
703.0	93.561
704.0	93.530
705.0	93.427
706.0	93.380
707.0	93.642
708.0	93.966
709.0	93.832
710.0	93.418
711.0	93.156
712.0	93.167
713.0	93.472
714.0	93.802
715.0	93.824
716.0	93.695
717.0	93.620
718.0	93.751
719.0	94.134
720.0	94.193
721.0	93.863
722.0	93.722
723.0	93.693
724.0	93.697
725.0	93.873
726.0	93.952
727.0	93.797
728.0	93.550
729.0	93.420
730.0	93.595
731.0	93.867
732.0	94.000
733.0	94.129
734.0	94.079
735.0	93.692
736.0	93.502
737.0	93.744
738.0	94.055
739.0	94.184
740.0	94.170
741.0	94.086
742.0	94.064
743.0	94.232
744.0	94.230
745.0	93.984
746.0	93.868
747.0	XXX.XXX
748.0	XXX.XXX
749.0	XXX.XXX
750.0	XXX.XXX
