Batch	scan004
Instrument ID	084303
Data Mode	%T
Sample	Sample001
Cycle	Cycle01
Date Collected	18/02/2025
Time Collected	10:51:15
Entries	Data Points
nm	%T
390.0	XXX.XXX
391.0	XXX.XXX
392.0	XXX.XXX
393.0	XXX.XXX
394.0	61.142
395.0	61.882
396.0	61.594
397.0	59.760
398.0	58.960
399.0	59.890
400.0	63.168
401.0	66.119
402.0	65.092
403.0	62.095
404.0	60.838
405.0	61.959
406.0	64.467
407.0	66.633
408.0	67.532
409.0	68.197
410.0	69.410
411.0	69.340
412.0	66.881
413.0	65.608
414.0	67.873
415.0	69.766
416.0	68.647
417.0	68.157
418.0	70.497
419.0	71.888
420.0	70.752
421.0	71.040
422.0	72.766
423.0	72.332
424.0	71.059
425.0	71.371
426.0	71.902
427.0	71.554
428.0	71.433
429.0	72.498
430.0	74.141
431.0	75.166
432.0	75.310
433.0	74.997
434.0	74.708
435.0	74.412
436.0	74.684
437.0	76.129
438.0	77.290
439.0	77.497
440.0	77.024
441.0	76.276
442.0	76.716
443.0	77.326
444.0	76.506
445.0	76.148
446.0	77.162
447.0	78.175
448.0	78.777
449.0	78.837
450.0	78.657
451.0	78.934
452.0	79.347
453.0	79.800
454.0	79.850
455.0	78.825
456.0	77.823
457.0	78.300
458.0	80.254
459.0	81.312
460.0	80.461
461.0	80.542
462.0	81.873
463.0	82.316
464.0	82.215
465.0	81.986
466.0	81.183
467.0	80.643
468.0	81.139
469.0	82.012
470.0	82.452
471.0	82.622
472.0	82.929
473.0	83.145
474.0	83.178
475.0	83.255
476.0	83.365
477.0	83.246
478.0	82.978
479.0	83.393
480.0	84.414
481.0	84.804
482.0	84.236
483.0	83.519
484.0	83.277
485.0	83.724
486.0	84.620
487.0	85.004
488.0	84.878
489.0	85.113
490.0	85.332
491.0	84.813
492.0	84.279
493.0	84.811
494.0	85.590
495.0	85.572
496.0	85.472
497.0	85.671
498.0	85.970
499.0	86.457
500.0	86.694
501.0	86.422
502.0	86.515
503.0	87.299
504.0	87.525
505.0	86.844
506.0	86.551
507.0	86.893
508.0	87.047
509.0	87.487
510.0	88.401
511.0	88.183
512.0	87.107
513.0	87.183
514.0	88.024
515.0	88.014
516.0	87.426
517.0	87.112
518.0	87.221
519.0	88.045
520.0	88.643
521.0	88.235
522.0	88.051
523.0	88.433
524.0	88.857
525.0	89.075
526.0	88.855
527.0	88.634
528.0	88.825
529.0	89.104
530.0	88.878
531.0	88.397
532.0	88.423
533.0	88.691
534.0	88.654
535.0	88.435
536.0	88.559
537.0	88.937
538.0	88.948
539.0	88.915
540.0	89.294
541.0	89.990
542.0	90.347
543.0	89.776
544.0	89.425
545.0	89.803
546.0	89.728
547.0	89.320
548.0	89.420
549.0	89.943
550.0	90.286
551.0	89.943
552.0	89.608
553.0	89.999
554.0	90.213
555.0	90.080
556.0	90.310
557.0	90.253
558.0	89.817
559.0	89.896
560.0	90.211
561.0	90.309
562.0	90.292
563.0	90.126
564.0	90.080
565.0	90.437
566.0	90.435
567.0	89.993
568.0	90.451
569.0	91.473
570.0	91.658
571.0	91.115
572.0	90.649
573.0	90.808
574.0	91.396
575.0	91.589
576.0	91.238
577.0	91.027
578.0	91.258
579.0	91.734
580.0	92.075
581.0	91.803
582.0	91.304
583.0	91.433
584.0	91.860
585.0	91.776
586.0	91.447
587.0	91.362
588.0	91.442
589.0	91.602
590.0	91.615
591.0	91.360
592.0	91.372
593.0	91.668
594.0	91.551
595.0	91.292
596.0	91.431
597.0	91.661
598.0	91.881
599.0	92.001
600.0	91.944
601.0	91.934
602.0	91.682
603.0	91.390
604.0	91.615
605.0	91.814
606.0	91.703
607.0	91.779
608.0	92.100
609.0	92.350
610.0	92.357
611.0	92.169
612.0	91.824
613.0	91.606
614.0	91.873
615.0	92.197
616.0	92.165
617.0	92.013
618.0	91.974
619.0	92.101
620.0	92.358
621.0	92.556
622.0	92.518
623.0	92.336
624.0	92.141
625.0	92.077
626.0	92.086
627.0	92.013
628.0	92.212
629.0	92.459
630.0	92.302
631.0	92.353
632.0	92.633
633.0	92.600
634.0	92.472
635.0	92.313
636.0	92.017
637.0	91.956
638.0	92.401
639.0	92.821
640.0	92.628
641.0	92.237
642.0	92.155
643.0	92.397
644.0	92.672
645.0	92.496
646.0	92.252
647.0	92.637
648.0	93.127
649.0	92.950
650.0	92.498
651.0	92.438
652.0	92.586
653.0	92.587
654.0	92.465
655.0	92.451
656.0	92.769
657.0	93.046
658.0	92.971
659.0	92.965
660.0	93.110
661.0	93.117
662.0	92.999
663.0	92.770
664.0	92.532
665.0	92.622
666.0	92.965
667.0	93.096
668.0	93.043
669.0	93.194
670.0	93.329
671.0	93.059
672.0	92.659
673.0	92.627
674.0	92.882
675.0	92.941
676.0	92.832
677.0	92.731
678.0	92.667
679.0	92.911
680.0	93.207
681.0	93.104
682.0	92.980
683.0	93.034
684.0	93.075
685.0	93.192
686.0	93.373
687.0	93.508
688.0	93.444
689.0	93.313
690.0	93.407
691.0	93.448
692.0	93.440
693.0	93.617
694.0	93.547
695.0	93.090
696.0	93.012
697.0	93.552
698.0	93.760
699.0	93.427
700.0	93.325
701.0	93.415
702.0	93.399
703.0	93.288
704.0	93.031
705.0	92.996
706.0	93.354
707.0	93.659
708.0	93.852
709.0	93.894
710.0	93.414
711.0	92.872
712.0	93.015
713.0	93.500
714.0	93.631
715.0	93.508
716.0	93.615
717.0	93.823
718.0	93.631
719.0	93.263
720.0	93.418
721.0	93.920
722.0	94.009
723.0	93.657
724.0	93.349
725.0	93.358
726.0	93.605
727.0	93.698
728.0	93.496
729.0	93.199
730.0	93.120
731.0	93.446
732.0	93.660
733.0	93.615
734.0	93.706
735.0	93.724
736.0	93.581
737.0	93.560
738.0	93.641
739.0	93.610
740.0	93.580
741.0	93.714
742.0	93.711
743.0	93.412
744.0	93.283
745.0	93.522
746.0	93.670
747.0	XXX.XXX
748.0	XXX.XXX
749.0	XXX.XXX
750.0	XXX.XXX
