Batch	scan004
Instrument ID	084303
Data Mode	%T
Sample	Sample001
Cycle	Cycle01
Date Collected	17/01/2025
Time Collected	01:51:48
Entries	Data Points
nm	%T
390.0	XXX.XXX
391.0	XXX.XXX
392.0	XXX.XXX
393.0	XXX.XXX
394.0	73.456
395.0	75.632
396.0	78.385
397.0	78.387
398.0	76.559
399.0	75.027
400.0	73.966
401.0	74.849
402.0	77.606
403.0	78.215
404.0	74.679
405.0	71.931
406.0	73.587
407.0	74.989
408.0	73.722
409.0	72.975
410.0	73.059
411.0	73.492
412.0	73.356
413.0	71.006
414.0	69.718
415.0	71.668
416.0	73.808
417.0	74.441
418.0	73.729
419.0	72.621
420.0	73.255
421.0	73.820
422.0	72.340
423.0	72.004
424.0	72.736
425.0	72.978
426.0	74.092
427.0	75.226
428.0	75.091
429.0	73.993
430.0	73.349
431.0	73.777
432.0	74.271
433.0	75.380
434.0	76.742
435.0	76.299
436.0	74.512
437.0	73.327
438.0	73.038
439.0	73.415
440.0	74.367
441.0	74.941
442.0	74.897
443.0	74.380
444.0	73.599
445.0	74.017
446.0	75.742
447.0	77.325
448.0	77.887
449.0	77.295
450.0	77.132
451.0	78.041
452.0	77.952
453.0	77.011
454.0	76.971
455.0	77.408
456.0	77.702
457.0	77.554
458.0	77.040
459.0	77.143
460.0	77.606
461.0	77.519
462.0	77.342
463.0	78.007
464.0	79.200
465.0	79.448
466.0	78.583
467.0	78.288
468.0	79.378
469.0	80.601
470.0	80.408
471.0	79.786
472.0	80.491
473.0	81.213
474.0	80.686
475.0	80.100
476.0	80.310
477.0	81.177
478.0	81.892
479.0	81.453
480.0	80.509
481.0	80.780
482.0	81.652
483.0	81.396
484.0	81.350
485.0	82.499
486.0	82.767
487.0	81.992
488.0	82.206
489.0	83.345
490.0	83.936
491.0	83.450
492.0	82.566
493.0	82.297
494.0	82.847
495.0	83.948
496.0	84.584
497.0	83.882
498.0	83.255
499.0	83.929
500.0	84.994
501.0	85.134
502.0	84.496
503.0	84.655
504.0	85.535
505.0	85.713
506.0	85.135
507.0	84.798
508.0	85.293
509.0	85.681
510.0	85.296
511.0	85.183
512.0	85.587
513.0	85.718
514.0	85.824
515.0	86.265
516.0	86.254
517.0	85.773
518.0	85.923
519.0	86.413
520.0	86.149
521.0	85.404
522.0	85.347
523.0	86.049
524.0	86.431
525.0	86.417
526.0	86.620
527.0	86.934
528.0	87.026
529.0	86.953
530.0	87.124
531.0	87.281
532.0	86.946
533.0	86.871
534.0	87.422
535.0	87.831
536.0	87.706
537.0	87.251
538.0	87.083
539.0	87.471
540.0	87.972
541.0	88.336
542.0	88.244
543.0	87.752
544.0	87.778
545.0	88.243
546.0	88.191
547.0	87.751
548.0	87.757
549.0	88.379
550.0	88.918
551.0	88.764
552.0	88.399
553.0	88.443
554.0	88.687
555.0	88.796
556.0	88.624
557.0	88.711
558.0	89.357
559.0	89.720
560.0	89.895
561.0	90.189
562.0	89.792
563.0	89.173
564.0	89.603
565.0	90.251
566.0	90.224
567.0	90.193
568.0	89.793
569.0	89.272
570.0	89.825
571.0	90.231
572.0	89.956
573.0	90.080
574.0	90.048
575.0	89.590
576.0	89.563
577.0	90.115
578.0	90.795
579.0	90.945
580.0	90.634
581.0	90.618
582.0	90.678
583.0	90.422
584.0	90.242
585.0	90.258
586.0	90.252
587.0	90.225
588.0	90.258
589.0	90.397
590.0	90.572
591.0	90.534
592.0	90.315
593.0	90.274
594.0	90.611
595.0	91.134
596.0	91.254
597.0	90.916
598.0	90.673
599.0	90.668
600.0	90.890
601.0	91.191
602.0	91.172
603.0	90.832
604.0	90.657
605.0	90.912
606.0	91.027
607.0	90.646
608.0	90.422
609.0	90.665
610.0	90.929
611.0	91.056
612.0	91.152
613.0	91.135
614.0	90.880
615.0	90.592
616.0	90.775
617.0	91.132
618.0	91.049
619.0	91.025
620.0	91.443
621.0	91.843
622.0	91.877
623.0	91.516
624.0	91.119
625.0	91.045
626.0	91.053
627.0	91.071
628.0	91.414
629.0	91.717
630.0	91.470
631.0	91.104
632.0	91.315
633.0	91.884
634.0	92.052
635.0	91.758
636.0	91.486
637.0	91.423
638.0	91.542
639.0	91.706
640.0	91.608
641.0	91.400
642.0	91.554
643.0	91.869
644.0	91.876
645.0	91.710
646.0	91.731
647.0	91.791
648.0	91.584
649.0	91.437
650.0	91.569
651.0	91.666
652.0	91.792
653.0	92.090
654.0	92.229
655.0	92.005
656.0	91.776
657.0	91.857
658.0	92.021
659.0	91.968
660.0	91.832
661.0	91.869
662.0	91.930
663.0	91.909
664.0	92.036
665.0	92.207
666.0	92.024
667.0	91.711
668.0	91.855
669.0	92.222
670.0	92.195
671.0	91.894
672.0	91.768
673.0	91.808
674.0	91.764
675.0	91.733
676.0	91.917
677.0	91.979
678.0	91.815
679.0	91.908
680.0	92.075
681.0	91.868
682.0	91.663
683.0	91.771
684.0	92.004
685.0	92.271
686.0	92.180
687.0	91.766
688.0	91.933
689.0	92.448
690.0	92.349
691.0	91.865
692.0	91.824
693.0	92.269
694.0	92.383
695.0	92.052
696.0	91.926
697.0	91.939
698.0	91.962
699.0	92.194
700.0	92.337
701.0	92.050
702.0	91.673
703.0	91.853
704.0	92.304
705.0	92.325
706.0	92.203
707.0	92.184
708.0	92.063
709.0	91.952
710.0	91.949
711.0	92.061
712.0	92.131
713.0	91.885
714.0	91.727
715.0	92.018
716.0	92.040
717.0	91.637
718.0	91.723
719.0	91.986
720.0	91.808
721.0	91.895
722.0	92.239
723.0	92.166
724.0	91.942
725.0	91.892
726.0	92.000
727.0	92.326
728.0	92.590
729.0	92.445
730.0	92.349
731.0	92.554
732.0	92.462
733.0	92.084
734.0	91.973
735.0	92.178
736.0	92.326
737.0	92.155
738.0	92.019
739.0	92.187
740.0	92.391
741.0	92.483
742.0	92.390
743.0	92.158
744.0	92.193
745.0	92.375
746.0	92.258
747.0	XXX.XXX
748.0	XXX.XXX
749.0	XXX.XXX
750.0	XXX.XXX
