Batch,scan005
Instrument ID,084303
Data Mode,%T
Sample,Sample001
Cycle,Cycle01
Date Collected,08/10/2025
Time Collected,05:51:26
Entries,Data Points
nm,%T
390.0,XXX.XXX
391.0,XXX.XXX
392.0,XXX.XXX
393.0,XXX.XXX
394.0,45.120
395.0,47.353
396.0,48.457
397.0,48.253
398.0,48.711
399.0,51.070
400.0,52.787
401.0,52.969
402.0,53.639
403.0,53.258
404.0,51.870
405.0,52.488
406.0,54.002
407.0,56.043
408.0,58.509
409.0,58.054
410.0,57.254
411.0,59.000
412.0,59.748
413.0,59.596
414.0,60.212
415.0,61.305
416.0,63.486
417.0,64.838
418.0,63.917
419.0,63.228
420.0,64.221
421.0,65.134
422.0,64.676
423.0,64.667
424.0,66.013
425.0,66.484
426.0,65.535
427.0,65.366
428.0,66.706
429.0,67.671
430.0,67.425
431.0,67.712
432.0,68.841
433.0,69.260
434.0,69.697
435.0,71.570
436.0,73.059
437.0,72.443
438.0,71.464
439.0,71.443
440.0,71.898
441.0,72.282
442.0,72.041
443.0,71.842
444.0,72.209
445.0,72.572
446.0,73.130
447.0,73.480
448.0,73.214
449.0,73.514
450.0,74.129
451.0,74.424
452.0,75.326
453.0,75.661
454.0,74.441
455.0,73.598
456.0,73.476
457.0,74.156
458.0,76.021
459.0,76.358
460.0,74.617
461.0,74.346
462.0,76.166
463.0,77.517
464.0,77.694
465.0,77.499
466.0,77.315
467.0,77.382
468.0,77.893
469.0,78.330
470.0,78.232
471.0,78.460
472.0,78.808
473.0,78.229
474.0,78.081
475.0,79.085
476.0,79.365
477.0,78.442
478.0,77.710
479.0,78.195
480.0,79.479
481.0,79.911
482.0,79.413
483.0,79.357
484.0,79.523
485.0,79.387
486.0,79.541
487.0,79.975
488.0,80.412
489.0,80.948
490.0,81.365
491.0,81.138
492.0,80.502
493.0,80.650
494.0,80.982
495.0,80.653
496.0,80.768
497.0,81.047
498.0,80.704
499.0,80.632
500.0,81.161
501.0,81.337
502.0,81.123
503.0,81.393
504.0,81.861
505.0,81.737
506.0,81.248
507.0,81.453
508.0,82.475
509.0,83.099
510.0,82.815
511.0,82.457
512.0,82.692
513.0,82.766
514.0,82.305
515.0,82.167
516.0,82.398
517.0,82.629
518.0,83.004
519.0,83.587
520.0,83.935
521.0,83.604
522.0,83.151
523.0,83.085
524.0,83.091
525.0,83.151
526.0,83.495
527.0,83.740
528.0,83.710
529.0,83.845
530.0,83.987
531.0,84.037
532.0,84.163
533.0,83.966
534.0,83.475
535.0,83.419
536.0,83.978
537.0,84.303
538.0,84.081
539.0,84.237
540.0,84.765
541.0,84.874
542.0,84.791
543.0,84.778
544.0,84.837
545.0,84.997
546.0,84.975
547.0,84.900
548.0,84.725
549.0,84.453
550.0,84.707
551.0,84.926
552.0,84.612
553.0,84.673
554.0,84.943
555.0,84.604
556.0,84.457
557.0,85.159
558.0,85.502
559.0,84.831
560.0,84.652
561.0,85.713
562.0,86.300
563.0,85.605
564.0,85.070
565.0,85.011
566.0,84.810
567.0,85.100
568.0,85.763
569.0,85.935
570.0,85.715
571.0,85.342
572.0,85.139
573.0,85.630
574.0,86.654
575.0,87.161
576.0,86.706
577.0,85.706
578.0,84.476
579.0,84.279
580.0,85.666
581.0,86.671
582.0,86.533
583.0,86.374
584.0,86.333
585.0,86.160
586.0,86.139
587.0,86.307
588.0,86.448
589.0,86.450
590.0,86.419
591.0,86.611
592.0,86.837
593.0,86.667
594.0,86.295
595.0,86.296
596.0,86.650
597.0,86.778
598.0,86.635
599.0,86.660
600.0,86.917
601.0,87.079
602.0,87.017
603.0,87.029
604.0,87.080
605.0,87.051
606.0,87.186
607.0,87.272
608.0,87.212
609.0,87.415
610.0,87.661
611.0,87.613
612.0,87.506
613.0,87.447
614.0,87.417
615.0,87.461
616.0,87.478
617.0,87.449
618.0,87.471
619.0,87.519
620.0,87.566
621.0,87.677
622.0,87.770
623.0,87.671
624.0,87.510
625.0,87.545
626.0,87.744
627.0,87.808
628.0,87.740
629.0,87.858
630.0,87.966
631.0,87.789
632.0,87.480
633.0,87.381
634.0,87.752
635.0,88.132
636.0,88.052
637.0,87.859
638.0,87.697
639.0,87.493
640.0,87.740
641.0,88.224
642.0,88.031
643.0,87.584
644.0,87.692
645.0,87.861
646.0,87.701
647.0,87.750
648.0,88.055
649.0,88.218
650.0,88.232
651.0,88.018
652.0,87.780
653.0,87.850
654.0,87.996
655.0,88.213
656.0,88.406
657.0,88.217
658.0,87.941
659.0,87.798
660.0,87.794
661.0,88.044
662.0,88.227
663.0,88.120
664.0,88.036
665.0,88.156
666.0,88.235
667.0,88.034
668.0,87.736
669.0,87.619
670.0,87.661
671.0,87.790
672.0,87.971
673.0,88.084
674.0,88.179
675.0,88.387
676.0,88.506
677.0,88.347
678.0,88.143
679.0,88.172
680.0,88.263
681.0,88.136
682.0,88.071
683.0,88.195
684.0,88.196
685.0,88.341
686.0,88.674
687.0,88.543
688.0,88.180
689.0,88.168
690.0,88.196
691.0,88.059
692.0,87.948
693.0,88.025
694.0,88.382
695.0,88.552
696.0,88.194
697.0,87.933
698.0,88.103
699.0,88.239
700.0,88.091
701.0,87.973
702.0,88.195
703.0,88.329
704.0,88.033
705.0,87.874
706.0,88.124
707.0,88.314
708.0,88.195
709.0,88.047
710.0,88.199
711.0,88.504
712.0,88.457
713.0,88.026
714.0,87.728
715.0,87.896
716.0,88.381
717.0,88.602
718.0,88.397
719.0,88.190
720.0,88.081
721.0,88.256
722.0,88.705
723.0,88.730
724.0,88.378
725.0,88.322
726.0,88.417
727.0,88.286
728.0,88.052
729.0,88.073
730.0,88.374
731.0,88.449
732.0,88.367
733.0,88.494
734.0,88.486
735.0,88.169
736.0,88.074
737.0,88.420
738.0,88.637
739.0,88.519
740.0,88.381
741.0,88.196
742.0,88.137
743.0,88.553
744.0,88.989
745.0,88.824
746.0,88.335
747.0,XXX.XXX
748.0,XXX.XXX
749.0,XXX.XXX
750.0,XXX.XXX
