Batch	scan002
Instrument ID	084303
Data Mode	%T
Sample	Sample001
Cycle	Cycle01
Date Collected	18/02/2025
Time Collected	10:35:29
Entries	Data Points
nm	%T
390.0	XXX.XXX
391.0	XXX.XXX
392.0	XXX.XXX
393.0	XXX.XXX
394.0	54.249
395.0	55.521
396.0	57.036
397.0	56.346
398.0	55.012
399.0	56.318
400.0	59.245
401.0	60.803
402.0	60.623
403.0	60.037
404.0	59.352
405.0	59.633
406.0	60.631
407.0	60.456
408.0	61.371
409.0	63.364
410.0	62.591
411.0	61.556
412.0	62.772
413.0	63.006
414.0	62.402
415.0	63.729
416.0	65.485
417.0	65.013
418.0	63.951
419.0	65.659
420.0	68.492
421.0	68.709
422.0	67.493
423.0	67.259
424.0	67.443
425.0	67.380
426.0	67.598
427.0	68.356
428.0	68.890
429.0	68.669
430.0	68.807
431.0	69.593
432.0	69.973
433.0	70.495
434.0	71.146
435.0	70.658
436.0	70.586
437.0	72.733
438.0	73.945
439.0	71.643
440.0	70.276
441.0	72.419
442.0	73.929
443.0	73.456
444.0	73.209
445.0	73.934
446.0	74.868
447.0	75.129
448.0	75.073
449.0	75.199
450.0	75.671
451.0	75.560
452.0	74.274
453.0	73.935
454.0	75.119
455.0	75.906
456.0	75.920
457.0	76.379
458.0	77.108
459.0	77.111
460.0	77.353
461.0	77.979
462.0	77.351
463.0	76.481
464.0	77.788
465.0	79.681
466.0	79.575
467.0	78.903
468.0	79.030
469.0	79.198
470.0	79.340
471.0	80.033
472.0	80.747
473.0	80.612
474.0	80.402
475.0	80.932
476.0	81.302
477.0	80.945
478.0	80.902
479.0	81.347
480.0	81.525
481.0	81.495
482.0	81.153
483.0	81.090
484.0	81.979
485.0	82.601
486.0	82.620
487.0	82.723
488.0	82.888
489.0	83.260
490.0	83.520
491.0	83.757
492.0	84.183
493.0	84.075
494.0	83.868
495.0	83.708
496.0	83.370
497.0	83.726
498.0	84.273
499.0	84.557
500.0	84.964
501.0	84.955
502.0	84.971
503.0	85.423
504.0	85.535
505.0	85.586
506.0	85.729
507.0	85.530
508.0	85.558
509.0	85.735
510.0	85.622
511.0	85.942
512.0	86.335
513.0	85.964
514.0	85.975
515.0	86.601
516.0	86.434
517.0	86.087
518.0	86.591
519.0	87.024
520.0	86.961
521.0	86.995
522.0	86.896
523.0	86.775
524.0	87.392
525.0	88.020
526.0	88.166
527.0	88.047
528.0	87.485
529.0	87.571
530.0	88.516
531.0	88.641
532.0	88.077
533.0	87.912
534.0	87.784
535.0	87.776
536.0	88.440
537.0	88.922
538.0	88.689
539.0	88.467
540.0	88.581
541.0	88.775
542.0	88.959
543.0	89.116
544.0	89.313
545.0	89.610
546.0	89.586
547.0	89.485
548.0	89.717
549.0	89.340
550.0	88.574
551.0	88.897
552.0	89.709
553.0	89.587
554.0	89.086
555.0	89.225
556.0	89.542
557.0	89.612
558.0	89.601
559.0	89.337
560.0	89.316
561.0	89.991
562.0	90.546
563.0	90.527
564.0	90.085
565.0	89.678
566.0	89.901
567.0	90.189
568.0	90.056
569.0	89.990
570.0	89.905
571.0	89.794
572.0	90.273
573.0	90.821
574.0	90.861
575.0	90.901
576.0	91.279
577.0	91.924
578.0	91.646
579.0	90.448
580.0	90.324
581.0	90.924
582.0	91.017
583.0	91.017
584.0	91.325
585.0	91.634
586.0	91.464
587.0	91.096
588.0	90.990
589.0	91.070
590.0	91.349
591.0	91.599
592.0	91.401
593.0	91.073
594.0	91.136
595.0	91.411
596.0	91.505
597.0	91.397
598.0	91.424
599.0	91.668
600.0	91.704
601.0	91.639
602.0	91.653
603.0	91.467
604.0	91.463
605.0	91.814
606.0	91.911
607.0	91.764
608.0	91.707
609.0	91.669
610.0	91.676
611.0	91.893
612.0	92.155
613.0	92.120
614.0	91.847
615.0	91.721
616.0	91.878
617.0	92.125
618.0	92.198
619.0	92.088
620.0	91.961
621.0	91.819
622.0	91.836
623.0	92.048
624.0	92.022
625.0	92.007
626.0	92.352
627.0	92.487
628.0	92.300
629.0	92.207
630.0	92.208
631.0	92.174
632.0	91.988
633.0	91.825
634.0	92.012
635.0	92.233
636.0	92.277
637.0	92.447
638.0	92.584
639.0	92.496
640.0	92.423
641.0	92.523
642.0	92.618
643.0	92.523
644.0	92.469
645.0	92.550
646.0	92.577
647.0	92.520
648.0	92.432
649.0	92.502
650.0	92.827
651.0	93.048
652.0	92.879
653.0	92.639
654.0	92.504
655.0	92.416
656.0	92.607
657.0	92.981
658.0	93.135
659.0	92.955
660.0	92.677
661.0	92.508
662.0	92.512
663.0	92.890
664.0	93.345
665.0	93.371
666.0	93.229
667.0	93.245
668.0	93.217
669.0	92.913
670.0	92.620
671.0	92.729
672.0	92.879
673.0	92.804
674.0	92.829
675.0	92.849
676.0	92.815
677.0	92.897
678.0	92.848
679.0	92.748
680.0	92.831
681.0	92.961
682.0	92.988
683.0	92.839
684.0	92.757
685.0	93.008
686.0	93.255
687.0	93.185
688.0	92.984
689.0	92.879
690.0	92.940
691.0	92.997
692.0	93.061
693.0	93.266
694.0	93.141
695.0	92.814
696.0	92.997
697.0	93.288
698.0	93.319
699.0	93.406
700.0	93.463
701.0	93.324
702.0	93.198
703.0	93.335
704.0	93.543
705.0	93.329
706.0	92.883
707.0	92.799
708.0	93.061
709.0	93.336
710.0	93.271
711.0	92.831
712.0	92.506
713.0	92.518
714.0	92.833
715.0	93.170
716.0	93.065
717.0	92.779
718.0	92.754
719.0	92.763
720.0	92.689
721.0	92.887
722.0	93.225
723.0	93.254
724.0	92.998
725.0	92.686
726.0	92.804
727.0	93.488
728.0	93.736
729.0	93.290
730.0	93.163
731.0	93.312
732.0	93.172
733.0	93.140
734.0	93.333
735.0	93.191
736.0	92.726
737.0	92.697
738.0	93.278
739.0	93.540
740.0	93.235
741.0	93.239
742.0	93.418
743.0	93.245
744.0	93.112
745.0	93.109
746.0	93.204
747.0	XXX.XXX
748.0	XXX.XXX
749.0	XXX.XXX
750.0	XXX.XXX
