Batch,scan001
Instrument ID,084303
Data Mode,%T
Sample,Sample001
Cycle,Cycle01
Date Collected,10/10/2025
Time Collected,08:02:35
Entries,Data Points
nm,%T
390.0,XXX.XXX
391.0,XXX.XXX
392.0,XXX.XXX
393.0,XXX.XXX
394.0,98.661
395.0,99.265
396.0,98.850
397.0,97.366
398.0,97.271
399.0,98.582
400.0,96.348
401.0,94.182
402.0,98.021
403.0,102.359
404.0,102.068
405.0,100.488
406.0,100.358
407.0,100.970
408.0,101.611
409.0,102.965
410.0,102.929
411.0,100.028
412.0,99.314
413.0,100.815
414.0,100.093
415.0,99.465
416.0,99.887
417.0,99.383
418.0,97.943
419.0,95.626
420.0,94.532
421.0,95.908
422.0,98.496
423.0,100.680
424.0,102.052
425.0,103.579
426.0,103.776
427.0,101.827
428.0,100.063
429.0,100.941
430.0,103.761
431.0,103.689
432.0,100.164
433.0,99.458
434.0,102.204
435.0,102.626
436.0,101.629
437.0,101.405
438.0,100.218
439.0,99.676
440.0,99.552
441.0,99.472
442.0,101.536
443.0,101.839
444.0,98.519
445.0,98.138
446.0,100.837
447.0,99.682
448.0,96.782
449.0,97.971
450.0,101.687
451.0,103.151
452.0,100.201
453.0,97.727
454.0,99.482
455.0,100.479
456.0,99.355
457.0,99.556
458.0,100.102
459.0,100.102
460.0,100.720
461.0,100.971
462.0,100.343
463.0,100.252
464.0,100.890
465.0,101.546
466.0,101.215
467.0,99.879
468.0,99.358
469.0,99.585
470.0,98.890
471.0,98.081
472.0,99.087
473.0,100.264
474.0,99.468
475.0,98.905
476.0,99.929
477.0,100.197
478.0,99.277
479.0,99.080
480.0,99.696
481.0,100.042
482.0,99.954
483.0,99.614
484.0,99.334
485.0,99.417
486.0,99.495
487.0,99.622
488.0,99.905
489.0,99.664
490.0,99.431
491.0,100.063
492.0,100.589
493.0,100.317
494.0,99.831
495.0,99.427
496.0,99.485
497.0,100.193
498.0,100.498
499.0,99.816
500.0,99.016
501.0,98.780
502.0,99.044
503.0,99.508
504.0,99.480
505.0,99.226
506.0,99.659
507.0,99.745
508.0,99.075
509.0,99.352
510.0,100.290
511.0,100.316
512.0,99.798
513.0,99.802
514.0,100.220
515.0,100.113
516.0,99.814
517.0,100.289
518.0,100.516
519.0,100.107
520.0,100.006
521.0,99.689
522.0,99.307
523.0,99.518
524.0,99.740
525.0,99.803
526.0,99.860
527.0,99.825
528.0,99.454
529.0,99.420
530.0,100.482
531.0,100.919
532.0,99.954
533.0,99.378
534.0,99.438
535.0,99.459
536.0,100.029
537.0,100.761
538.0,100.590
539.0,100.605
540.0,100.977
541.0,100.109
542.0,99.287
543.0,99.789
544.0,100.112
545.0,99.955
546.0,99.999
547.0,100.028
548.0,99.864
549.0,99.757
550.0,100.087
551.0,100.499
552.0,100.223
553.0,99.703
554.0,99.494
555.0,99.256
556.0,99.196
557.0,99.631
558.0,100.012
559.0,99.971
560.0,99.609
561.0,99.202
562.0,99.171
563.0,99.521
564.0,99.912
565.0,99.720
566.0,99.090
567.0,99.178
568.0,99.786
569.0,100.034
570.0,99.878
571.0,99.528
572.0,99.483
573.0,99.862
574.0,100.187
575.0,100.333
576.0,100.358
577.0,100.019
578.0,99.482
579.0,99.446
580.0,99.812
581.0,100.034
582.0,100.092
583.0,99.988
584.0,99.808
585.0,99.763
586.0,99.777
587.0,99.821
588.0,100.055
589.0,100.281
590.0,100.218
591.0,100.054
592.0,99.943
593.0,99.932
594.0,100.092
595.0,100.193
596.0,100.026
597.0,99.839
598.0,99.910
599.0,100.081
600.0,100.093
601.0,99.971
602.0,99.880
603.0,99.901
604.0,100.000
605.0,100.057
606.0,100.006
607.0,99.926
608.0,99.922
609.0,99.966
610.0,99.953
611.0,99.965
612.0,99.977
613.0,99.859
614.0,99.887
615.0,100.122
616.0,100.125
617.0,99.886
618.0,99.854
619.0,100.060
620.0,100.108
621.0,99.936
622.0,99.839
623.0,99.918
624.0,100.068
625.0,100.023
626.0,99.765
627.0,99.793
628.0,100.093
629.0,100.175
630.0,100.081
631.0,100.047
632.0,100.029
633.0,99.979
634.0,99.961
635.0,99.895
636.0,99.804
637.0,99.953
638.0,100.153
639.0,100.058
640.0,99.902
641.0,99.928
642.0,100.037
643.0,100.139
644.0,100.116
645.0,99.986
646.0,100.012
647.0,100.180
648.0,100.136
649.0,99.832
650.0,99.619
651.0,99.581
652.0,99.659
653.0,99.940
654.0,100.151
655.0,100.056
656.0,99.961
657.0,99.933
658.0,99.774
659.0,99.691
660.0,99.847
661.0,99.925
662.0,99.777
663.0,99.773
664.0,100.054
665.0,100.299
666.0,100.315
667.0,100.198
668.0,100.234
669.0,100.332
670.0,100.189
671.0,100.053
672.0,100.051
673.0,99.942
674.0,99.840
675.0,99.953
676.0,100.100
677.0,99.991
678.0,99.862
679.0,100.118
680.0,100.315
681.0,100.077
682.0,99.930
683.0,100.054
684.0,100.129
685.0,100.121
686.0,100.115
687.0,100.118
688.0,100.169
689.0,100.170
690.0,100.032
691.0,100.042
692.0,100.175
693.0,100.148
694.0,100.130
695.0,100.128
696.0,100.022
697.0,100.002
698.0,100.099
699.0,100.321
700.0,100.557
701.0,100.353
702.0,99.918
703.0,99.852
704.0,100.015
705.0,100.065
706.0,100.018
707.0,100.085
708.0,100.290
709.0,100.236
710.0,100.002
711.0,100.077
712.0,100.216
713.0,100.048
714.0,99.933
715.0,100.221
716.0,100.543
717.0,100.574
718.0,100.526
719.0,100.488
720.0,100.260
721.0,99.769
722.0,99.527
723.0,99.939
724.0,100.371
725.0,100.276
726.0,100.057
727.0,100.153
728.0,100.325
729.0,100.291
730.0,100.156
731.0,99.917
732.0,99.754
733.0,99.951
734.0,100.192
735.0,100.150
736.0,100.009
737.0,99.981
738.0,100.049
739.0,100.134
740.0,100.193
741.0,100.209
742.0,100.095
743.0,99.936
744.0,100.029
745.0,100.301
746.0,100.359
747.0,XXX.XXX
748.0,XXX.XXX
749.0,XXX.XXX
750.0,XXX.XXX
