,     Angle,       PSD
0,5.0,1829
1,5.04003,1725
2,5.08006,1770
3,5.1201,1788
4,5.16013,1753
5,5.20016,1795
6,5.24019,1615
7,5.28023,1671
8,5.32026,1707
9,5.36029,1595
10,5.40032,1647
11,5.44035,1593
12,5.48039,1621
13,5.52042,1644
14,5.56045,1649
15,5.60048,1638
16,5.64052,1524
17,5.68055,1572
18,5.72058,1531
19,5.76061,1497
20,5.80064,1492
21,5.84068,1469
22,5.88071,1591
23,5.92074,1514
24,5.96077,1462
25,6.0008,1400
26,6.04084,1456
27,6.08087,1437
28,6.1209,1464
29,6.16093,1444
30,6.20097,1510
31,6.241,1430
32,6.28103,1362
33,6.32106,1398
34,6.36109,1342
35,6.40113,1396
36,6.44116,1436
37,6.48119,1339
38,6.52122,1359
39,6.56126,1359
40,6.60129,1267
41,6.64132,1318
42,6.68135,1295
43,6.72138,1240
44,6.76142,1274
45,6.80145,1260
46,6.84148,1330
47,6.88151,1295
48,6.92155,1262
49,6.96158,1289
50,7.00161,1294
51,7.04164,1262
52,7.08167,1272
53,7.12171,1223
54,7.16174,1279
55,7.20177,1312
56,7.2418,1239
57,7.28184,1256
58,7.32187,1241
59,7.3619,1178
60,7.40193,1327
61,7.44196,1201
62,7.482,1230
63,7.52203,1192
64,7.56206,1161
65,7.60209,1203
66,7.64213,1186
67,7.68216,1144
68,7.72219,1251
69,7.76222,1255
70,7.80225,1233
71,7.84229,1258
72,7.88232,1117
73,7.92235,1229
74,7.96238,1223
75,8.00241,1168
76,8.04245,1178
77,8.08248,1144
78,8.12251,1232
79,8.16254,1238
80,8.20258,1177
81,8.24261,1141
82,8.28264,1174
83,8.32267,1196
84,8.3627,1145
85,8.40274,1225
86,8.44277,1197
87,8.4828,1167
88,8.52283,1197
89,8.56287,1148
90,8.6029,1102
91,8.64293,1189
92,8.68296,1181
93,8.72299,1192
94,8.76303,1196
95,8.80306,1191
96,8.84309,1167
97,8.88312,1159
98,8.92316,1180
99,8.96319,1132
100,9.00322,1154
101,9.04325,1203
102,9.08328,1174
103,9.12332,1204
104,9.16335,1120
105,9.20338,1237
106,9.24341,1193
107,9.28345,1289
108,9.32348,1159
109,9.36351,1185
110,9.40354,1245
111,9.44357,1198
112,9.48361,1271
113,9.52364,1147
114,9.56367,1167
115,9.6037,1198
116,9.64374,1173
117,9.68377,1139
118,9.7238,1198
119,9.76383,1232
120,9.80386,1153
121,9.8439,1170
122,9.88393,1183
123,9.92396,1292
124,9.96399,1235
125,10.004,1183
126,10.0441,1197
127,10.0841,1233
128,10.1241,1219
129,10.1642,1218
130,10.2042,1227
131,10.2442,1291
132,10.2843,1239
133,10.3243,1253
134,10.3643,1285
135,10.4043,1326
136,10.4444,1332
137,10.4844,1280
138,10.5244,1259
139,10.5645,1256
140,10.6045,1250
141,10.6445,1213
142,10.6846,1255
143,10.7246,1237
144,10.7646,1254
145,10.8047,1244
146,10.8447,1303
147,10.8847,1282
148,10.9248,1298
149,10.9648,1313
150,11.0048,1343
151,11.0449,1289
152,11.0849,1274
153,11.1249,1348
154,11.165,1327
155,11.205,1341
156,11.245,1342
157,11.2851,1286
158,11.3251,1347
159,11.3651,1259
160,11.4052,1340
161,11.4452,1290
162,11.4852,1274
163,11.5252,1344
164,11.5653,1302
165,11.6053,1372
166,11.6453,1314
167,11.6854,1352
168,11.7254,1337
169,11.7654,1408
170,11.8055,1456
171,11.8455,1444
172,11.8855,1471
173,11.9256,1499
174,11.9656,1357
175,12.0056,1442
176,12.0457,1461
177,12.0857,1409
178,12.1257,1408
179,12.1658,1433
180,12.2058,1415
181,12.2458,1439
182,12.2859,1405
183,12.3259,1419
184,12.3659,1456
185,12.406,1478
186,12.446,1431
187,12.486,1430
188,12.5261,1454
189,12.5661,1523
190,12.6061,1488
191,12.6462,1482
192,12.6862,1534
193,12.7262,1522
194,12.7662,1472
195,12.8063,1481
196,12.8463,1504
197,12.8863,1469
198,12.9264,1584
199,12.9664,1527
200,13.0064,1577
201,13.0465,1510
202,13.0865,1478
203,13.1265,1512
204,13.1666,1503
205,13.2066,1581
206,13.2466,1495
207,13.2867,1528
208,13.3267,1534
209,13.3667,1570
210,13.4068,1624
211,13.4468,1547
212,13.4868,1534
213,13.5269,1674
214,13.5669,1587
215,13.6069,1556
216,13.647,1535
217,13.687,1565
218,13.727,1528
219,13.7671,1565
220,13.8071,1613
221,13.8471,1627
222,13.8871,1612
223,13.9272,1623
224,13.9672,1644
225,14.0072,1603
226,14.0473,1682
227,14.0873,1610
228,14.1273,1565
229,14.1674,1646
230,14.2074,1726
231,14.2474,1630
232,14.2875,1711
233,14.3275,1662
234,14.3675,1721
235,14.4076,1814
236,14.4476,1766
237,14.4876,1837
238,14.5277,1751
239,14.5677,1690
240,14.6077,1715
241,14.6478,1652
242,14.6878,1695
243,14.7278,1745
244,14.7679,1700
245,14.8079,1697
246,14.8479,1707
247,14.888,1741
248,14.928,1798
249,14.968,1734
250,15.008,1799
251,15.0481,1748
252,15.0881,1760
253,15.1281,1791
254,15.1682,1732
255,15.2082,1668
256,15.2482,1740
257,15.2883,1730
258,15.3283,1691
259,15.3683,1778
260,15.4084,1714
261,15.4484,1741
262,15.4884,1731
263,15.5285,1750
264,15.5685,1794
265,15.6085,1771
266,15.6486,1770
267,15.6886,1725
268,15.7286,1752
269,15.7687,1758
270,15.8087,1870
271,15.8487,1815
272,15.8888,1800
273,15.9288,1797
274,15.9688,1752
275,16.0089,1775
276,16.0489,1780
277,16.0889,1758
278,16.129,1844
279,16.169,1855
280,16.209,1819
281,16.249,1860
282,16.2891,1895
283,16.3291,1807
284,16.3691,1787
285,16.4092,1822
286,16.4492,1774
287,16.4892,1779
288,16.5293,1770
289,16.5693,1756
290,16.6093,1838
291,16.6494,1857
292,16.6894,1883
293,16.7294,1737
294,16.7695,1786
295,16.8095,1782
296,16.8495,1831
297,16.8896,1804
298,16.9296,1835
299,16.9696,1792
300,17.0097,1828
301,17.0497,1852
302,17.0897,1885
303,17.1298,1841
304,17.1698,1742
305,17.2098,1814
306,17.2499,1860
307,17.2899,1889
308,17.3299,1783
309,17.3699,1837
310,17.41,1937
311,17.45,1911
312,17.49,1921
313,17.5301,1882
314,17.5701,1889
315,17.6101,1883
316,17.6502,1921
317,17.6902,1961
318,17.7302,1880
319,17.7703,1974
320,17.8103,1882
321,17.8503,1924
322,17.8904,1919
323,17.9304,1888
324,17.9704,1834
325,18.0105,1869
326,18.0505,1911
327,18.0905,1858
328,18.1306,1909
329,18.1706,1900
330,18.2106,1878
331,18.2507,1922
332,18.2907,1958
333,18.3307,1907
334,18.3708,1864
335,18.4108,1905
336,18.4508,1922
337,18.4909,1950
338,18.5309,1917
339,18.5709,1941
340,18.6109,1956
341,18.651,1895
342,18.691,1933
343,18.731,1952
344,18.7711,1946
345,18.8111,2029
346,18.8511,1969
347,18.8912,1936
348,18.9312,1889
349,18.9712,2013
350,19.0113,2030
351,19.0513,1940
352,19.0913,1978
353,19.1314,2012
354,19.1714,1987
355,19.2114,1972
356,19.2515,1948
357,19.2915,1959
358,19.3315,1997
359,19.3716,2001
360,19.4116,1991
361,19.4516,1992
362,19.4917,1981
363,19.5317,1986
364,19.5717,2031
365,19.6118,2009
366,19.6518,1996
367,19.6918,2084
368,19.7318,2039
369,19.7719,2135
370,19.8119,2071
371,19.8519,2083
372,19.892,2004
373,19.932,2099
374,19.972,2030
375,20.0121,2058
376,20.0521,2105
377,20.0921,2073
378,20.1322,2085
379,20.1722,2115
380,20.2122,2122
381,20.2523,2167
382,20.2923,2146
383,20.3323,2020
384,20.3724,2088
385,20.4124,2146
386,20.4524,2103
387,20.4925,2115
388,20.5325,2127
389,20.5725,2153
390,20.6126,2087
391,20.6526,2186
392,20.6926,2149
393,20.7327,2117
394,20.7727,2205
395,20.8127,2294
396,20.8528,2152
397,20.8928,2142
398,20.9328,2152
399,20.9728,2141
400,21.0129,2108
401,21.0529,2178
402,21.0929,2144
403,21.133,2279
404,21.173,2120
405,21.213,2207
406,21.2531,2130
407,21.2931,2090
408,21.3331,2145
409,21.3732,2118
410,21.4132,2220
411,21.4532,2136
412,21.4933,2136
413,21.5333,2213
414,21.5733,2154
415,21.6134,2114
416,21.6534,2154
417,21.6934,2103
418,21.7335,2202
419,21.7735,2208
420,21.8135,2133
421,21.8536,2224
422,21.8936,2222
423,21.9336,2130
424,21.9737,2130
425,22.0137,2163
426,22.0537,2157
427,22.0937,2192
428,22.1338,2059
429,22.1738,2167
430,22.2138,2173
431,22.2539,2167
432,22.2939,2188
433,22.3339,2127
434,22.374,2035
435,22.414,2078
436,22.454,2100
437,22.4941,2083
438,22.5341,2047
439,22.5741,2098
440,22.6142,2031
441,22.6542,2069
442,22.6942,2086
443,22.7343,2058
444,22.7743,1986
445,22.8143,2099
446,22.8544,2054
447,22.8944,2104
448,22.9344,2093
449,22.9745,1964
450,23.0145,2007
451,23.0545,1892
452,23.0946,1935
453,23.1346,1875
454,23.1746,1895
455,23.2147,1819
456,23.2547,1896
457,23.2947,1771
458,23.3347,1801
459,23.3748,1925
460,23.4148,1845
461,23.4548,1872
462,23.4949,1808
463,23.5349,1792
464,23.5749,1794
465,23.615,1730
466,23.655,1744
467,23.695,1687
468,23.7351,1719
469,23.7751,1659
470,23.8151,1688
471,23.8552,1640
472,23.8952,1673
473,23.9352,1679
474,23.9753,1634
475,24.0153,1624
476,24.0553,1637
477,24.0954,1656
478,24.1354,1654
479,24.1754,1576
480,24.2155,1589
481,24.2555,1608
482,24.2955,1661
483,24.3356,1640
484,24.3756,1628
485,24.4156,1530
486,24.4556,1604
487,24.4957,1591
488,24.5357,1545
489,24.5757,1528
490,24.6158,1497
491,24.6558,1439
492,24.6958,1469
493,24.7359,1514
494,24.7759,1498
495,24.8159,1466
496,24.856,1499
497,24.896,1414
498,24.936,1492
499,24.9761,1420
500,25.0161,1465
501,25.0561,1414
502,25.0962,1439
503,25.1362,1378
504,25.1762,1455
505,25.2163,1478
506,25.2563,1530
507,25.2963,1401
508,25.3364,1395
509,25.3764,1448
510,25.4164,1325
511,25.4565,1366
512,25.4965,1356
513,25.5365,1334
514,25.5766,1385
515,25.6166,1371
516,25.6566,1301
517,25.6966,1323
518,25.7367,1336
519,25.7767,1323
520,25.8167,1361
521,25.8568,1328
522,25.8968,1295
523,25.9368,1202
524,25.9769,1300
525,26.0169,1360
526,26.0569,1294
527,26.097,1368
528,26.137,1270
529,26.177,1301
530,26.2171,1305
531,26.2571,1302
532,26.2971,1244
533,26.3372,1266
534,26.3772,1291
535,26.4172,1287
536,26.4573,1312
537,26.4973,1342
538,26.5373,1308
539,26.5774,1249
540,26.6174,1273
541,26.6574,1273
542,26.6975,1234
543,26.7375,1256
544,26.7775,1216
545,26.8175,1244
546,26.8576,1232
547,26.8976,1282
548,26.9376,1171
549,26.9777,1281
550,27.0177,1243
551,27.0577,1195
552,27.0978,1208
553,27.1378,1245
554,27.1778,1208
555,27.2179,1203
556,27.2579,1160
557,27.2979,1137
558,27.338,1235
559,27.378,1170
560,27.418,1166
561,27.4581,1199
562,27.4981,1186
563,27.5381,1200
564,27.5782,1154
565,27.6182,1184
566,27.6582,1191
567,27.6983,1191
568,27.7383,1206
569,27.7783,1153
570,27.8184,1170
571,27.8584,1173
572,27.8984,1124
573,27.9385,1152
574,27.9785,1213
575,28.0185,1152
576,28.0585,1152
577,28.0986,1153
578,28.1386,1152
579,28.1786,1164
580,28.2187,1199
581,28.2587,1155
582,28.2987,1118
583,28.3388,1147
584,28.3788,1187
585,28.4188,1203
586,28.4589,1141
587,28.4989,1161
588,28.5389,1161
589,28.579,1110
590,28.619,1182
591,28.659,1167
592,28.6991,1138
593,28.7391,1175
594,28.7791,1161
595,28.8192,1132
596,28.8592,1068
597,28.8992,1111
598,28.9393,1146
599,28.9793,1221
600,29.0193,1071
601,29.0594,1116
602,29.0994,1017
603,29.1394,1094
604,29.1794,1117
605,29.2195,1124
606,29.2595,1104
607,29.2995,1127
608,29.3396,1132
609,29.3796,1086
610,29.4196,1104
611,29.4597,1035
612,29.4997,1092
613,29.5397,1089
614,29.5798,1046
615,29.6198,1014
616,29.6598,1081
617,29.6999,1088
618,29.7399,1086
619,29.7799,1105
620,29.82,1044
621,29.86,1054
622,29.9,1062
623,29.9401,1089
624,29.9801,1109
625,30.0201,1087
626,30.0602,1071
627,30.1002,1027
628,30.1402,1073
629,30.1803,1068
630,30.2203,1067
631,30.2603,1042
632,30.3004,1051
633,30.3404,1031
634,30.3804,1087
635,30.4204,1030
636,30.4605,1068
637,30.5005,1066
638,30.5405,1078
639,30.5806,996
640,30.6206,1008
641,30.6606,1030
642,30.7007,1010
643,30.7407,964
644,30.7807,1060
645,30.8208,1028
646,30.8608,1056
647,30.9008,962
648,30.9409,1009
649,30.9809,1022
650,31.0209,1015
651,31.061,1077
652,31.101,1036
653,31.141,1076
654,31.1811,1019
655,31.2211,938
656,31.2611,995
657,31.3012,966
658,31.3412,1032
659,31.3812,975
660,31.4213,979
661,31.4613,1028
662,31.5013,1000
663,31.5413,980
664,31.5814,1002
665,31.6214,1006
666,31.6614,974
667,31.7015,1048
668,31.7415,969
669,31.7815,974
670,31.8216,979
671,31.8616,972
672,31.9016,1012
673,31.9417,1012
674,31.9817,929
675,32.0217,997
676,32.0618,980
677,32.1018,1042
678,32.1418,1006
679,32.1819,1024
680,32.2219,1037
681,32.2619,1061
682,32.302,1083
683,32.342,1048
684,32.382,1090
685,32.4221,1061
686,32.4621,982
687,32.5021,970
688,32.5422,980
689,32.5822,953
690,32.6222,1012
691,32.6623,1003
692,32.7023,890
693,32.7423,987
694,32.7823,961
695,32.8224,953
696,32.8624,992
697,32.9024,944
698,32.9425,924
699,32.9825,965
700,33.0225,951
701,33.0626,954
702,33.1026,914
703,33.1426,948
704,33.1827,1032
705,33.2227,973
706,33.2627,938
707,33.3028,930
708,33.3428,877
709,33.3828,919
710,33.4229,941
711,33.4629,1009
712,33.5029,980
713,33.543,925
714,33.583,968
715,33.623,970
716,33.6631,997
717,33.7031,956
718,33.7431,963
719,33.7832,979
720,33.8232,944
721,33.8632,946
722,33.9032,928
723,33.9433,915
724,33.9833,1006
725,34.0233,918
726,34.0634,935
727,34.1034,954
728,34.1434,981
729,34.1835,944
730,34.2235,981
731,34.2635,956
732,34.3036,998
733,34.3436,952
734,34.3836,909
735,34.4237,979
736,34.4637,979
737,34.5037,943
738,34.5438,935
739,34.5838,958
740,34.6238,945
741,34.6639,998
742,34.7039,1020
743,34.7439,979
744,34.784,988
745,34.824,991
746,34.864,959
747,34.9041,975
748,34.9441,966
749,34.9841,974
750,35.0241,950
751,35.0642,966
752,35.1042,942
753,35.1442,944
754,35.1843,1002
755,35.2243,971
756,35.2643,964
757,35.3044,1011
758,35.3444,916
759,35.3844,933
760,35.4245,926
761,35.4645,965
762,35.5045,917
763,35.5446,1005
764,35.5846,923
765,35.6246,940
766,35.6647,955
767,35.7047,1038
768,35.7447,939
769,35.7848,953
770,35.8248,966
771,35.8648,894
772,35.9049,923
773,35.9449,936
774,35.9849,944
775,36.025,980
776,36.065,965
777,36.105,996
778,36.1451,983
779,36.1851,911
780,36.2251,921
781,36.2651,972
782,36.3052,906
783,36.3452,964
784,36.3852,924
785,36.4253,887
786,36.4653,920
787,36.5053,980
788,36.5454,934
789,36.5854,951
790,36.6254,952
791,36.6655,916
792,36.7055,976
793,36.7455,950
794,36.7856,995
795,36.8256,902
796,36.8656,935
797,36.9057,919
798,36.9457,946
799,36.9857,988
800,37.0258,916
801,37.0658,906
802,37.1058,926
803,37.1459,937
804,37.1859,943
805,37.2259,851
806,37.266,931
807,37.306,964
808,37.346,923
809,37.386,901
810,37.4261,902
811,37.4661,911
812,37.5061,902
813,37.5462,943
814,37.5862,887
815,37.6262,851
816,37.6663,880
817,37.7063,887
818,37.7463,889
819,37.7864,941
820,37.8264,917
821,37.8664,975
822,37.9065,953
823,37.9465,935
824,37.9865,938
825,38.0266,947
826,38.0666,937
827,38.1066,968
828,38.1467,880
829,38.1867,866
830,38.2267,912
831,38.2668,897
832,38.3068,926
833,38.3468,881
834,38.3869,871
835,38.4269,884
836,38.4669,892
837,38.507,918
838,38.547,893
839,38.587,871
840,38.627,901
841,38.6671,941
842,38.7071,915
843,38.7471,905
844,38.7872,833
845,38.8272,827
846,38.8672,863
847,38.9073,864
848,38.9473,923
849,38.9873,867
850,39.0274,872
851,39.0674,844
852,39.1074,901
853,39.1475,874
854,39.1875,933
855,39.2275,925
856,39.2676,963
857,39.3076,888
858,39.3476,866
859,39.3877,848
860,39.4277,853
861,39.4677,909
862,39.5078,890
863,39.5478,896
864,39.5878,887
865,39.6279,862
866,39.6679,903
867,39.7079,957
868,39.7479,886
869,39.788,868
870,39.828,836
871,39.868,857
872,39.9081,835
873,39.9481,842
874,39.9881,882
875,40.0282,929
876,40.0682,863
877,40.1082,892
878,40.1483,895
879,40.1883,922
880,40.2283,918
881,40.2684,878
882,40.3084,952
883,40.3484,891
884,40.3885,926
885,40.4285,867
886,40.4685,862
887,40.5086,891
888,40.5486,872
889,40.5886,848
890,40.6287,897
891,40.6687,891
892,40.7087,841
893,40.7488,924
894,40.7888,817
895,40.8288,833
896,40.8689,870
897,40.9089,830
898,40.9489,893
899,40.9889,860
900,41.029,887
901,41.069,914
902,41.109,842
903,41.1491,819
904,41.1891,870
905,41.2291,831
906,41.2692,837
907,41.3092,873
908,41.3492,860
909,41.3893,855
910,41.4293,833
911,41.4693,794
912,41.5094,852
913,41.5494,807
914,41.5894,837
915,41.6295,839
916,41.6695,875
917,41.7095,740
918,41.7496,866
919,41.7896,850
920,41.8296,850
921,41.8697,812
922,41.9097,817
923,41.9497,860
924,41.9898,874
925,42.0298,870
926,42.0698,861
927,42.1098,861
928,42.1499,800
929,42.1899,859
930,42.2299,806
931,42.27,808
932,42.31,837
933,42.35,790
934,42.3901,837
935,42.4301,818
936,42.4701,852
937,42.5102,831
938,42.5502,786
939,42.5902,835
940,42.6303,803
941,42.6703,854
942,42.7103,797
943,42.7504,834
944,42.7904,830
945,42.8304,767
946,42.8705,834
947,42.9105,823
948,42.9505,813
949,42.9906,794
950,43.0306,764
951,43.0706,782
952,43.1107,743
953,43.1507,748
954,43.1907,755
955,43.2308,772
956,43.2708,769
957,43.3108,783
958,43.3508,758
959,43.3909,800
960,43.4309,796
961,43.4709,773
962,43.511,794
963,43.551,815
964,43.591,789
965,43.6311,840
966,43.6711,751
967,43.7111,771
968,43.7512,753
969,43.7912,779
970,43.8312,732
971,43.8713,755
972,43.9113,772
973,43.9513,701
974,43.9914,738
975,44.0314,717
976,44.0714,740
977,44.1115,795
978,44.1515,785
979,44.1915,793
980,44.2316,719
981,44.2716,768
982,44.3116,782
983,44.3517,725
984,44.3917,749
985,44.4317,712
986,44.4717,760
987,44.5118,770
988,44.5518,701
989,44.5918,738
990,44.6319,767
991,44.6719,708
992,44.7119,768
993,44.752,703
994,44.792,719
995,44.832,759
996,44.8721,781
997,44.9121,677
998,44.9521,734
999,44.9922,731
1000,45.0322,745
1001,45.0722,735
1002,45.1123,744
1003,45.1523,721
1004,45.1923,687
1005,45.2324,728
1006,45.2724,685
1007,45.3124,676
1008,45.3525,714
1009,45.3925,720
1010,45.4325,728
1011,45.4726,702
1012,45.5126,722
1013,45.5526,690
1014,45.5927,720
1015,45.6327,703
1016,45.6727,708
1017,45.7127,656
1018,45.7528,727
1019,45.7928,722
1020,45.8328,698
1021,45.8729,698
1022,45.9129,673
1023,45.9529,698
1024,45.993,704
1025,46.033,724
1026,46.073,684
1027,46.1131,707
1028,46.1531,667
1029,46.1931,698
1030,46.2332,694
1031,46.2732,678
1032,46.3132,724
1033,46.3533,667
1034,46.3933,696
1035,46.4333,633
1036,46.4734,719
1037,46.5134,694
1038,46.5534,678
1039,46.5935,658
1040,46.6335,681
1041,46.6735,706
1042,46.7136,693
1043,46.7536,644
1044,46.7936,658
1045,46.8336,675
1046,46.8737,670
1047,46.9137,683
1048,46.9537,677
1049,46.9938,644
1050,47.0338,662
1051,47.0738,667
1052,47.1139,604
1053,47.1539,635
1054,47.1939,658
1055,47.234,668
1056,47.274,612
1057,47.314,626
1058,47.3541,595
1059,47.3941,605
1060,47.4341,637
1061,47.4742,630
1062,47.5142,647
1063,47.5542,637
1064,47.5943,672
1065,47.6343,614
1066,47.6743,611
1067,47.7144,610
1068,47.7544,663
1069,47.7944,615
1070,47.8345,668
1071,47.8745,631
1072,47.9145,588
1073,47.9546,639
1074,47.9946,646
1075,48.0346,660
1076,48.0746,604
1077,48.1147,599
1078,48.1547,607
1079,48.1947,627
1080,48.2348,605
1081,48.2748,630
1082,48.3148,623
1083,48.3549,597
1084,48.3949,599
1085,48.4349,621
1086,48.475,595
1087,48.515,571
1088,48.555,581
1089,48.5951,563
1090,48.6351,591
1091,48.6751,569
1092,48.7152,638
1093,48.7552,592
1094,48.7952,546
1095,48.8353,605
1096,48.8753,583
1097,48.9153,616
1098,48.9554,577
1099,48.9954,552
1100,49.0354,622
1101,49.0755,595
1102,49.1155,572
1103,49.1555,591
1104,49.1955,594
1105,49.2356,524
1106,49.2756,589
1107,49.3156,553
1108,49.3557,591
1109,49.3957,583
1110,49.4357,520
1111,49.4758,583
1112,49.5158,573
1113,49.5558,563
1114,49.5959,524
1115,49.6359,535
1116,49.6759,578
1117,49.716,551
1118,49.756,528
1119,49.796,593
1120,49.8361,575
1121,49.8761,570
1122,49.9161,587
1123,49.9562,528
1124,49.9962,569
1125,50.0362,518
1126,50.0763,520
1127,50.1163,557
1128,50.1563,562
1129,50.1964,564
1130,50.2364,536
1131,50.2764,546
1132,50.3165,549
1133,50.3565,527
1134,50.3965,562
1135,50.4365,542
1136,50.4766,535
1137,50.5166,524
1138,50.5566,501
1139,50.5967,555
1140,50.6367,516
1141,50.6767,552
1142,50.7168,526
1143,50.7568,489
1144,50.7968,536
1145,50.8369,544
1146,50.8769,524
1147,50.9169,530
1148,50.957,522
1149,50.997,475
1150,51.037,507
1151,51.0771,499
1152,51.1171,493
1153,51.1571,550
1154,51.1972,521
1155,51.2372,520
1156,51.2772,492
1157,51.3173,485
1158,51.3573,490
1159,51.3973,523
1160,51.4374,523
1161,51.4774,473
1162,51.5174,497
1163,51.5574,500
1164,51.5975,504
1165,51.6375,506
1166,51.6775,501
1167,51.7176,519
1168,51.7576,545
1169,51.7976,496
1170,51.8377,491
1171,51.8777,490
1172,51.9177,511
1173,51.9578,503
1174,51.9978,500
1175,52.0378,485
1176,52.0779,481
1177,52.1179,431
1178,52.1579,493
1179,52.198,503
1180,52.238,538
1181,52.278,499
1182,52.3181,435
1183,52.3581,459
1184,52.3981,488
1185,52.4382,503
1186,52.4782,463
1187,52.5182,478
1188,52.5583,505
1189,52.5983,537
1190,52.6383,513
1191,52.6784,502
1192,52.7184,474
1193,52.7584,459
1194,52.7984,476
1195,52.8385,498
1196,52.8785,441
1197,52.9185,505
1198,52.9586,454
1199,52.9986,435
1200,53.0386,497
1201,53.0787,499
1202,53.1187,452
1203,53.1587,486
1204,53.1988,442
1205,53.2388,489
1206,53.2788,475
1207,53.3189,506
1208,53.3589,463
1209,53.3989,481
1210,53.439,458
1211,53.479,452
1212,53.519,473
1213,53.5591,440
1214,53.5991,465
1215,53.6391,466
1216,53.6792,486
1217,53.7192,443
1218,53.7592,448
1219,53.7993,464
1220,53.8393,456
1221,53.8793,457
1222,53.9193,409
1223,53.9594,520
1224,53.9994,435
1225,54.0394,439
1226,54.0795,438
1227,54.1195,461
1228,54.1595,468
1229,54.1996,457
1230,54.2396,505
1231,54.2796,428
1232,54.3197,471
1233,54.3597,443
1234,54.3997,424
1235,54.4398,413
1236,54.4798,436
1237,54.5198,454
1238,54.5599,442
1239,54.5999,411
1240,54.6399,437
1241,54.68,461
1242,54.72,456
1243,54.76,433
1244,54.8001,458
1245,54.8401,436
1246,54.8801,443
1247,54.9202,433
1248,54.9602,426
1249,55.0002,444
1250,55.0402,471
1251,55.0803,465
1252,55.1203,459
1253,55.1603,420
1254,55.2004,404
1255,55.2404,431
1256,55.2804,429
1257,55.3205,390
1258,55.3605,430
1259,55.4005,396
1260,55.4406,441
1261,55.4806,495
1262,55.5206,386
1263,55.5607,418
1264,55.6007,424
1265,55.6407,384
1266,55.6808,415
1267,55.7208,422
1268,55.7608,392
1269,55.8009,408
1270,55.8409,445
1271,55.8809,414
1272,55.921,421
1273,55.961,417
1274,56.001,440
1275,56.0411,419
1276,56.0811,401
1277,56.1211,390
1278,56.1612,430
1279,56.2012,415
1280,56.2412,435
1281,56.2812,417
1282,56.3213,431
1283,56.3613,401
1284,56.4013,461
1285,56.4414,403
1286,56.4814,424
1287,56.5214,413
1288,56.5615,405
1289,56.6015,388
1290,56.6415,412
1291,56.6816,407
1292,56.7216,384
1293,56.7616,406
1294,56.8017,412
1295,56.8417,383
1296,56.8817,399
1297,56.9218,387
1298,56.9618,402
1299,57.0018,427
1300,57.0419,408
1301,57.0819,365
1302,57.1219,391
1303,57.162,433
1304,57.202,424
1305,57.242,402
1306,57.2821,396
1307,57.3221,395
1308,57.3621,388
1309,57.4021,382
1310,57.4422,402
1311,57.4822,414
1312,57.5222,426
1313,57.5623,376
1314,57.6023,401
1315,57.6423,394
1316,57.6824,429
1317,57.7224,435
1318,57.7624,385
1319,57.8025,391
1320,57.8425,383
1321,57.8825,410
1322,57.9226,369
1323,57.9626,414
1324,58.0026,386
1325,58.0427,383
1326,58.0827,390
1327,58.1227,392
1328,58.1628,441
1329,58.2028,375
1330,58.2428,458
1331,58.2829,415
1332,58.3229,395
1333,58.3629,402
1334,58.403,398
1335,58.443,428
1336,58.483,428
1337,58.5231,436
1338,58.5631,384
1339,58.6031,378
1340,58.6431,379
1341,58.6832,362
1342,58.7232,408
1343,58.7632,416
1344,58.8033,370
1345,58.8433,388
1346,58.8833,394
1347,58.9234,396
1348,58.9634,380
1349,59.0034,385
1350,59.0435,395
1351,59.0835,371
1352,59.1235,387
1353,59.1636,343
1354,59.2036,384
1355,59.2436,401
1356,59.2837,364
1357,59.3237,353
1358,59.3637,357
1359,59.4038,396
1360,59.4438,383
1361,59.4838,382
1362,59.5239,400
1363,59.5639,378
1364,59.6039,390
1365,59.644,389
1366,59.684,380
1367,59.724,366
1368,59.764,411
1369,59.8041,379
1370,59.8441,381
1371,59.8841,384
1372,59.9242,367
1373,59.9642,389
1374,60.0042,363
1375,60.0443,398
1376,60.0843,343
1377,60.1243,394
1378,60.1644,361
1379,60.2044,407
1380,60.2444,351
1381,60.2845,350
1382,60.3245,332
1383,60.3645,365
1384,60.4046,369
1385,60.4446,384
1386,60.4846,366
1387,60.5247,366
1388,60.5647,389
1389,60.6047,382
1390,60.6448,338
1391,60.6848,389
1392,60.7248,386
1393,60.7649,372
1394,60.8049,352
1395,60.8449,379
1396,60.885,386
1397,60.925,398
1398,60.965,359
1399,61.005,346
1400,61.0451,348
1401,61.0851,312
1402,61.1251,345
1403,61.1652,357
1404,61.2052,366
1405,61.2452,374
1406,61.2853,358
1407,61.3253,375
1408,61.3653,342
1409,61.4054,343
1410,61.4454,368
1411,61.4854,373
1412,61.5255,376
1413,61.5655,360
1414,61.6055,365
1415,61.6456,359
1416,61.6856,351
1417,61.7256,362
1418,61.7657,336
1419,61.8057,320
1420,61.8457,376
1421,61.8858,351
1422,61.9258,367
1423,61.9658,341
1424,62.0059,360
1425,62.0459,338
1426,62.0859,352
1427,62.1259,355
1428,62.166,332
1429,62.206,326
1430,62.246,338
1431,62.2861,364
1432,62.3261,378
1433,62.3661,340
1434,62.4062,356
1435,62.4462,354
1436,62.4862,346
1437,62.5263,359
1438,62.5663,312
1439,62.6063,348
1440,62.6464,359
1441,62.6864,361
1442,62.7264,332
1443,62.7665,358
1444,62.8065,348
1445,62.8465,377
1446,62.8866,360
1447,62.9266,338
1448,62.9666,334
1449,63.0067,321
1450,63.0467,328
1451,63.0867,344
1452,63.1268,340
1453,63.1668,310
1454,63.2068,336
1455,63.2469,297
1456,63.2869,336
1457,63.3269,336
1458,63.3669,345
1459,63.407,347
1460,63.447,336
1461,63.487,339
1462,63.5271,339
1463,63.5671,367
1464,63.6071,294
1465,63.6472,334
1466,63.6872,328
1467,63.7272,359
1468,63.7673,363
1469,63.8073,336
1470,63.8473,348
1471,63.8874,357
1472,63.9274,344
1473,63.9674,317
1474,64.0075,322
1475,64.0475,337
1476,64.0875,343
1477,64.1276,347
1478,64.1676,371
1479,64.2076,338
1480,64.2477,309
1481,64.2877,369
1482,64.3277,330
1483,64.3678,355
1484,64.4078,349
1485,64.4478,365
1486,64.4878,359
1487,64.5279,373
1488,64.5679,316
1489,64.6079,340
1490,64.648,346
1491,64.688,339
1492,64.728,336
1493,64.7681,333
1494,64.8081,355
1495,64.8481,359
1496,64.8882,361
1497,64.9282,317
1498,64.9682,361
1499,65.0083,367
1500,65.0483,340
1501,65.0883,333
1502,65.1284,342
1503,65.1684,335
1504,65.2084,336
1505,65.2485,344
1506,65.2885,342
1507,65.3285,291
1508,65.3686,351
1509,65.4086,346
1510,65.4486,318
1511,65.4887,296
1512,65.5287,358
1513,65.5687,341
1514,65.6088,342
1515,65.6488,342
1516,65.6888,310
1517,65.7288,297
1518,65.7689,349
1519,65.8089,321
1520,65.8489,350
1521,65.889,349
1522,65.929,331
1523,65.969,345
1524,66.0091,329
1525,66.0491,322
1526,66.0891,323
1527,66.1292,314
1528,66.1692,308
1529,66.2092,309
1530,66.2493,373
1531,66.2893,311
1532,66.3293,330
1533,66.3694,344
1534,66.4094,375
1535,66.4494,343
1536,66.4895,320
1537,66.5295,341
1538,66.5695,354
1539,66.6096,308
1540,66.6496,305
1541,66.6896,329
1542,66.7297,349
1543,66.7697,316
1544,66.8097,350
1545,66.8497,342
1546,66.8898,336
1547,66.9298,318
1548,66.9698,349
1549,67.0099,324
1550,67.0499,332
1551,67.0899,325
1552,67.13,315
1553,67.17,327
1554,67.21,349
1555,67.2501,326
1556,67.2901,332
1557,67.3301,337
1558,67.3702,345
1559,67.4102,333
1560,67.4502,308
1561,67.4903,331
1562,67.5303,346
1563,67.5703,345
1564,67.6104,334
1565,67.6504,319
1566,67.6904,330
1567,67.7305,309
1568,67.7705,322
1569,67.8105,335
1570,67.8506,327
1571,67.8906,353
1572,67.9306,338
1573,67.9707,340
1574,68.0107,366
1575,68.0507,327
1576,68.0907,303
1577,68.1308,322
1578,68.1708,337
1579,68.2108,343
1580,68.2509,346
1581,68.2909,325
1582,68.3309,307
1583,68.371,345
1584,68.411,340
1585,68.451,355
1586,68.4911,290
1587,68.5311,320
1588,68.5711,359
1589,68.6112,324
1590,68.6512,370
1591,68.6912,285
1592,68.7313,314
1593,68.7713,332
1594,68.8113,293
1595,68.8514,357
1596,68.8914,339
1597,68.9314,341
1598,68.9715,319
1599,69.0115,301
1600,69.0515,309
1601,69.0916,345
1602,69.1316,298
1603,69.1716,294
1604,69.2116,313
1605,69.2517,309
1606,69.2917,303
1607,69.3317,308
1608,69.3718,300
1609,69.4118,300
1610,69.4518,330
1611,69.4919,300
1612,69.5319,324
1613,69.5719,328
1614,69.612,319
1615,69.652,334
1616,69.692,333
1617,69.7321,324
1618,69.7721,295
1619,69.8121,322
1620,69.8522,319
1621,69.8922,318
1622,69.9322,306
1623,69.9723,310
1624,70.0123,327
1625,70.0523,316
1626,70.0924,333
1627,70.1324,300
1628,70.1724,334
1629,70.2125,304
1630,70.2525,332
1631,70.2925,324
1632,70.3326,333
1633,70.3726,319
1634,70.4126,339
1635,70.4526,307
1636,70.4927,319
1637,70.5327,354
1638,70.5727,300
1639,70.6128,295
1640,70.6528,295
1641,70.6928,330
1642,70.7329,349
1643,70.7729,341
1644,70.8129,344
1645,70.853,307
1646,70.893,318
1647,70.933,330
1648,70.9731,332
1649,71.0131,298
1650,71.0531,305
1651,71.0932,336
1652,71.1332,325
1653,71.1732,336
1654,71.2133,332
1655,71.2533,311
1656,71.2933,304
1657,71.3334,307
1658,71.3734,327
1659,71.4134,330
1660,71.4535,329
1661,71.4935,317
1662,71.5335,293
1663,71.5735,288
1664,71.6136,313
1665,71.6536,306
1666,71.6936,322
1667,71.7337,324
1668,71.7737,319
1669,71.8137,313
1670,71.8538,344
1671,71.8938,335
1672,71.9338,331
1673,71.9739,313
1674,72.0139,322
1675,72.0539,329
1676,72.094,317
1677,72.134,294
1678,72.174,306
1679,72.2141,287
1680,72.2541,309
1681,72.2941,337
1682,72.3342,291
1683,72.3742,301
1684,72.4142,314
1685,72.4543,305
1686,72.4943,337
1687,72.5343,315
1688,72.5744,305
1689,72.6144,300
1690,72.6544,303
1691,72.6945,321
1692,72.7345,311
1693,72.7745,316
1694,72.8145,330
1695,72.8546,305
1696,72.8946,319
1697,72.9346,312
1698,72.9747,339
1699,73.0147,338
1700,73.0547,300
1701,73.0948,286
1702,73.1348,299
1703,73.1748,364
1704,73.2149,329
1705,73.2549,312
1706,73.2949,324
1707,73.335,310
1708,73.375,343
1709,73.415,334
1710,73.4551,319
1711,73.4951,311
1712,73.5351,342
1713,73.5752,334
1714,73.6152,339
1715,73.6552,337
1716,73.6953,287
1717,73.7353,321
1718,73.7753,328
1719,73.8154,329
1720,73.8554,327
1721,73.8954,306
1722,73.9354,329
1723,73.9755,313
1724,74.0155,306
1725,74.0555,332
1726,74.0956,332
1727,74.1356,332
1728,74.1756,316
1729,74.2157,337
1730,74.2557,319
1731,74.2957,326
1732,74.3358,313
1733,74.3758,336
1734,74.4158,279
1735,74.4559,310
1736,74.4959,302
1737,74.5359,304
1738,74.576,314
1739,74.616,311
1740,74.656,299
1741,74.6961,292
1742,74.7361,319
1743,74.7761,325
1744,74.8162,340
1745,74.8562,302
1746,74.8962,325
1747,74.9363,324
1748,74.9763,254
1749,75.0163,292
1750,75.0563,302
1751,75.0964,329
1752,75.1364,340
1753,75.1764,306
1754,75.2165,283
1755,75.2565,300
1756,75.2965,311
1757,75.3366,328
1758,75.3766,345
1759,75.4166,307
1760,75.4567,319
1761,75.4967,316
1762,75.5367,297
1763,75.5768,333
1764,75.6168,328
1765,75.6568,264
1766,75.6969,296
1767,75.7369,317
1768,75.7769,312
1769,75.817,281
1770,75.857,294
1771,75.897,297
1772,75.9371,351
1773,75.9771,291
1774,76.0171,324
1775,76.0572,328
1776,76.0972,324
1777,76.1372,319
1778,76.1773,327
1779,76.2173,326
1780,76.2573,325
1781,76.2973,317
1782,76.3374,294
1783,76.3774,290
1784,76.4174,319
1785,76.4575,300
1786,76.4975,290
1787,76.5375,337
1788,76.5776,372
1789,76.6176,333
1790,76.6576,333
1791,76.6977,364
1792,76.7377,304
1793,76.7777,326
1794,76.8178,350
1795,76.8578,282
1796,76.8978,318
1797,76.9379,312
1798,76.9779,337
1799,77.0179,310
1800,77.058,334
1801,77.098,321
1802,77.138,302
1803,77.1781,313
1804,77.2181,340
1805,77.2581,329
1806,77.2982,328
1807,77.3382,339
1808,77.3782,334
1809,77.4182,331
1810,77.4583,328
1811,77.4983,293
1812,77.5383,329
1813,77.5784,319
1814,77.6184,320
1815,77.6584,299
1816,77.6985,331
1817,77.7385,305
1818,77.7785,290
1819,77.8186,290
1820,77.8586,293
1821,77.8986,335
1822,77.9387,308
1823,77.9787,323
1824,78.0187,297
1825,78.0588,343
1826,78.0988,318
1827,78.1388,305
1828,78.1789,309
1829,78.2189,326
1830,78.2589,329
1831,78.299,291
1832,78.339,327
1833,78.379,318
