Batch,scan003
Instrument ID,084303
Data Mode,%T
Sample,Sample001
Cycle,Cycle01
Date Collected,10/10/2025
Time Collected,07:22:26
Entries,Data Points
nm,%T
390.0,XXX.XXX
391.0,XXX.XXX
392.0,XXX.XXX
393.0,XXX.XXX
394.0,23.197
395.0,23.450
396.0,23.614
397.0,25.055
398.0,25.829
399.0,25.043
400.0,25.259
401.0,27.125
402.0,28.012
403.0,27.875
404.0,28.661
405.0,29.458
406.0,29.805
407.0,30.613
408.0,31.052
409.0,31.367
410.0,32.489
411.0,33.099
412.0,32.712
413.0,32.934
414.0,34.110
415.0,35.068
416.0,35.610
417.0,36.137
418.0,36.943
419.0,38.294
420.0,38.874
421.0,38.443
422.0,39.251
423.0,40.796
424.0,41.335
425.0,41.856
426.0,42.724
427.0,43.091
428.0,42.813
429.0,42.282
430.0,42.879
431.0,44.717
432.0,45.955
433.0,45.752
434.0,44.947
435.0,45.232
436.0,46.678
437.0,47.329
438.0,46.797
439.0,46.791
440.0,48.021
441.0,48.945
442.0,48.750
443.0,49.108
444.0,50.364
445.0,51.186
446.0,51.898
447.0,52.808
448.0,53.278
449.0,53.054
450.0,52.616
451.0,53.080
452.0,53.923
453.0,54.013
454.0,54.332
455.0,55.118
456.0,55.632
457.0,56.693
458.0,57.598
459.0,57.081
460.0,57.188
461.0,58.452
462.0,58.462
463.0,57.575
464.0,57.795
465.0,58.870
466.0,59.534
467.0,59.650
468.0,59.919
469.0,60.610
470.0,61.490
471.0,61.833
472.0,61.559
473.0,61.851
474.0,62.447
475.0,62.587
476.0,62.906
477.0,63.348
478.0,63.609
479.0,64.114
480.0,64.816
481.0,65.115
482.0,65.068
483.0,65.523
484.0,66.229
485.0,66.224
486.0,66.154
487.0,67.028
488.0,68.091
489.0,68.130
490.0,67.648
491.0,67.606
492.0,67.738
493.0,68.388
494.0,69.770
495.0,70.430
496.0,70.102
497.0,70.057
498.0,70.547
499.0,70.882
500.0,70.924
501.0,71.044
502.0,71.251
503.0,71.593
504.0,72.227
505.0,72.730
506.0,72.830
507.0,72.983
508.0,73.408
509.0,73.809
510.0,74.133
511.0,74.405
512.0,74.458
513.0,74.624
514.0,75.080
515.0,75.140
516.0,74.919
517.0,74.852
518.0,74.889
519.0,75.694
520.0,76.643
521.0,76.529
522.0,76.433
523.0,77.003
524.0,77.513
525.0,77.652
526.0,77.553
527.0,77.805
528.0,78.437
529.0,78.830
530.0,79.035
531.0,79.089
532.0,78.966
533.0,79.290
534.0,79.992
535.0,80.312
536.0,80.172
537.0,79.993
538.0,80.290
539.0,80.796
540.0,80.887
541.0,80.969
542.0,81.173
543.0,81.262
544.0,81.471
545.0,81.530
546.0,81.391
547.0,81.908
548.0,82.747
549.0,82.677
550.0,82.353
551.0,82.460
552.0,82.484
553.0,82.762
554.0,83.174
555.0,83.076
556.0,82.858
557.0,82.983
558.0,83.260
559.0,83.467
560.0,83.918
561.0,84.525
562.0,84.749
563.0,84.771
564.0,84.853
565.0,84.571
566.0,83.997
567.0,84.276
568.0,85.365
569.0,85.869
570.0,85.580
571.0,85.252
572.0,85.309
573.0,85.566
574.0,85.662
575.0,85.900
576.0,86.400
577.0,86.398
578.0,85.950
579.0,86.039
580.0,86.572
581.0,86.825
582.0,86.900
583.0,87.014
584.0,87.016
585.0,87.117
586.0,87.390
587.0,87.422
588.0,87.337
589.0,87.558
590.0,87.903
591.0,88.067
592.0,88.045
593.0,87.956
594.0,88.008
595.0,88.211
596.0,88.317
597.0,88.295
598.0,88.344
599.0,88.541
600.0,88.783
601.0,88.895
602.0,88.972
603.0,89.153
604.0,89.120
605.0,88.898
606.0,88.948
607.0,89.177
608.0,89.310
609.0,89.295
610.0,89.278
611.0,89.501
612.0,89.710
613.0,89.699
614.0,89.734
615.0,89.907
616.0,90.054
617.0,89.987
618.0,89.824
619.0,89.949
620.0,90.264
621.0,90.344
622.0,90.261
623.0,90.317
624.0,90.524
625.0,90.706
626.0,90.657
627.0,90.516
628.0,90.643
629.0,90.866
630.0,90.867
631.0,90.796
632.0,90.826
633.0,90.966
634.0,91.136
635.0,91.307
636.0,91.513
637.0,91.564
638.0,91.452
639.0,91.485
640.0,91.709
641.0,91.917
642.0,91.827
643.0,91.516
644.0,91.568
645.0,91.888
646.0,91.911
647.0,91.843
648.0,91.806
649.0,91.697
650.0,91.861
651.0,92.141
652.0,92.168
653.0,92.079
654.0,92.024
655.0,92.133
656.0,92.314
657.0,92.320
658.0,92.254
659.0,92.364
660.0,92.649
661.0,92.767
662.0,92.595
663.0,92.569
664.0,92.700
665.0,92.610
666.0,92.561
667.0,92.666
668.0,92.637
669.0,92.617
670.0,92.653
671.0,92.561
672.0,92.522
673.0,92.669
674.0,92.752
675.0,92.797
676.0,93.006
677.0,93.143
678.0,93.045
679.0,93.022
680.0,93.218
681.0,93.314
682.0,93.185
683.0,93.121
684.0,93.247
685.0,93.312
686.0,93.227
687.0,93.239
688.0,93.294
689.0,93.234
690.0,93.230
691.0,93.386
692.0,93.526
693.0,93.541
694.0,93.558
695.0,93.569
696.0,93.491
697.0,93.486
698.0,93.686
699.0,93.958
700.0,93.940
701.0,93.664
702.0,93.694
703.0,93.944
704.0,93.958
705.0,94.014
706.0,94.237
707.0,94.185
708.0,93.999
709.0,94.090
710.0,94.092
711.0,93.812
712.0,93.713
713.0,93.823
714.0,93.909
715.0,94.016
716.0,94.080
717.0,94.022
718.0,94.033
719.0,94.156
720.0,94.101
721.0,93.891
722.0,93.967
723.0,94.203
724.0,94.196
725.0,94.196
726.0,94.332
727.0,94.275
728.0,94.069
729.0,94.107
730.0,94.232
731.0,94.151
732.0,94.177
733.0,94.372
734.0,94.602
735.0,94.757
736.0,94.443
737.0,94.059
738.0,94.227
739.0,94.398
740.0,94.284
741.0,94.373
742.0,94.528
743.0,94.475
744.0,94.359
745.0,94.262
746.0,94.267
747.0,XXX.XXX
748.0,XXX.XXX
749.0,XXX.XXX
750.0,XXX.XXX
