nm,A_7_5g,A_15g,A_18g,A_22_5g
231.0,1.486,1.62,1.587,2.386
231.5,1.468,1.6,1.567,2.34
232.0,1.451,1.58,1.547,2.299
232.5,1.434,1.561,1.528,2.26
233.0,1.417,1.542,1.509,2.224
233.5,1.401,1.524,1.491,2.187
234.0,1.385,1.506,1.474,2.151
234.5,1.369,1.488,1.457,2.116
235.0,1.353,1.47,1.441,2.084
235.5,1.338,1.453,1.424,2.054
236.0,1.324,1.437,1.408,2.026
236.5,1.31,1.422,1.394,1.999
237.0,1.296,1.407,1.38,1.973
237.5,1.284,1.393,1.367,1.949
238.0,1.273,1.38,1.354,1.925
238.5,1.262,1.368,1.341,1.904
239.0,1.252,1.357,1.33,1.885
239.5,1.242,1.346,1.319,1.868
240.0,1.232,1.336,1.309,1.853
240.5,1.223,1.325,1.299,1.839
241.0,1.214,1.316,1.29,1.825
241.5,1.205,1.307,1.281,1.811
242.0,1.197,1.298,1.273,1.797
242.5,1.189,1.29,1.265,1.784
243.0,1.181,1.282,1.257,1.772
243.5,1.174,1.274,1.249,1.76
244.0,1.168,1.266,1.24,1.749
244.5,1.161,1.259,1.233,1.737
245.0,1.154,1.251,1.226,1.726
245.5,1.148,1.244,1.22,1.715
246.0,1.142,1.237,1.214,1.706
246.5,1.136,1.231,1.209,1.698
247.0,1.13,1.225,1.203,1.69
247.5,1.125,1.219,1.197,1.682
248.0,1.119,1.213,1.192,1.673
248.5,1.113,1.208,1.186,1.664
249.0,1.108,1.202,1.18,1.655
249.5,1.102,1.197,1.175,1.646
250.0,1.097,1.192,1.17,1.637
250.5,1.092,1.186,1.165,1.629
251.0,1.087,1.181,1.16,1.622
251.5,1.082,1.176,1.155,1.615
252.0,1.077,1.171,1.15,1.608
252.5,1.072,1.167,1.146,1.602
253.0,1.068,1.163,1.143,1.595
253.5,1.064,1.159,1.14,1.59
254.0,1.061,1.156,1.137,1.587
254.5,1.058,1.154,1.134,1.584
255.0,1.056,1.153,1.133,1.582
255.5,1.054,1.151,1.132,1.581
256.0,1.053,1.151,1.131,1.582
256.5,1.053,1.151,1.132,1.583
257.0,1.053,1.152,1.133,1.584
257.5,1.055,1.154,1.134,1.587
258.0,1.057,1.157,1.137,1.59
258.5,1.06,1.16,1.141,1.596
259.0,1.063,1.164,1.145,1.602
259.5,1.066,1.168,1.151,1.609
260.0,1.071,1.173,1.157,1.617
260.5,1.076,1.18,1.164,1.627
261.0,1.084,1.188,1.171,1.639
261.5,1.092,1.197,1.18,1.654
262.0,1.1,1.207,1.189,1.669
262.5,1.108,1.217,1.199,1.685
263.0,1.116,1.227,1.209,1.701
263.5,1.124,1.237,1.219,1.716
264.0,1.133,1.248,1.229,1.732
264.5,1.141,1.257,1.238,1.747
265.0,1.149,1.267,1.247,1.761
265.5,1.157,1.276,1.255,1.774
266.0,1.164,1.286,1.263,1.786
266.5,1.172,1.294,1.272,1.798
267.0,1.18,1.303,1.281,1.81
267.5,1.188,1.312,1.292,1.824
268.0,1.197,1.322,1.302,1.839
268.5,1.207,1.333,1.312,1.856
269.0,1.217,1.345,1.323,1.875
269.5,1.228,1.357,1.335,1.896
270.0,1.239,1.369,1.347,1.915
270.5,1.251,1.38,1.36,1.931
271.0,1.261,1.391,1.37,1.943
271.5,1.27,1.401,1.379,1.953
272.0,1.277,1.41,1.386,1.964
272.5,1.282,1.417,1.392,1.978
273.0,1.287,1.423,1.397,1.994
273.5,1.291,1.427,1.402,2.01
274.0,1.294,1.431,1.406,2.021
274.5,1.298,1.434,1.409,2.028
275.0,1.3,1.438,1.411,2.03
275.5,1.303,1.442,1.414,2.03
276.0,1.306,1.446,1.417,2.029
276.5,1.309,1.451,1.42,2.031
277.0,1.312,1.455,1.423,2.036
277.5,1.316,1.459,1.426,2.042
278.0,1.321,1.461,1.429,2.047
278.5,1.324,1.462,1.431,2.051
279.0,1.326,1.463,1.432,2.054
279.5,1.326,1.464,1.433,2.057
280.0,1.326,1.464,1.434,2.059
280.5,1.325,1.464,1.435,2.06
281.0,1.325,1.463,1.435,2.058
281.5,1.325,1.463,1.433,2.057
282.0,1.325,1.462,1.43,2.058
282.5,1.325,1.461,1.428,2.058
283.0,1.323,1.459,1.426,2.054
283.5,1.32,1.457,1.424,2.046
284.0,1.318,1.454,1.422,2.036
284.5,1.314,1.45,1.418,2.029
285.0,1.309,1.444,1.412,2.023
285.5,1.304,1.438,1.405,2.014
286.0,1.298,1.431,1.399,2.001
286.5,1.292,1.425,1.393,1.986
287.0,1.286,1.42,1.388,1.975
287.5,1.28,1.415,1.381,1.966
288.0,1.275,1.409,1.374,1.959
288.5,1.27,1.401,1.365,1.95
289.0,1.265,1.394,1.357,1.939
289.5,1.259,1.386,1.349,1.925
290.0,1.253,1.379,1.342,1.912
290.5,1.246,1.372,1.335,1.9
291.0,1.239,1.364,1.328,1.89
291.5,1.233,1.355,1.322,1.881
292.0,1.227,1.346,1.316,1.87
292.5,1.221,1.338,1.311,1.859
293.0,1.215,1.331,1.304,1.847
293.5,1.21,1.326,1.297,1.836
294.0,1.205,1.32,1.29,1.827
294.5,1.2,1.315,1.285,1.818
295.0,1.195,1.309,1.279,1.81
295.5,1.19,1.304,1.273,1.802
296.0,1.185,1.298,1.267,1.794
296.5,1.18,1.292,1.261,1.788
297.0,1.175,1.287,1.256,1.78
297.5,1.171,1.283,1.252,1.772
298.0,1.168,1.279,1.249,1.765
298.5,1.164,1.275,1.246,1.759
299.0,1.162,1.271,1.242,1.754
299.5,1.16,1.265,1.237,1.748
300.0,1.158,1.26,1.233,1.74
300.5,1.155,1.255,1.229,1.731
301.0,1.152,1.252,1.226,1.723
301.5,1.148,1.249,1.222,1.717
302.0,1.145,1.247,1.218,1.713
302.5,1.143,1.245,1.215,1.71
303.0,1.14,1.242,1.213,1.707
303.5,1.138,1.24,1.211,1.707
304.0,1.137,1.237,1.21,1.706
304.5,1.136,1.234,1.209,1.704
305.0,1.135,1.233,1.208,1.701
305.5,1.134,1.232,1.206,1.698
306.0,1.134,1.232,1.205,1.697
306.5,1.133,1.232,1.203,1.698
307.0,1.133,1.232,1.203,1.698
307.5,1.133,1.231,1.202,1.698
308.0,1.133,1.23,1.203,1.698
308.5,1.133,1.229,1.203,1.698
309.0,1.134,1.229,1.204,1.699
309.5,1.136,1.23,1.205,1.7
310.0,1.138,1.231,1.206,1.7
310.5,1.14,1.234,1.209,1.699
311.0,1.142,1.236,1.211,1.7
311.5,1.144,1.239,1.214,1.704
312.0,1.146,1.24,1.217,1.711
312.5,1.149,1.242,1.219,1.718
313.0,1.15,1.244,1.221,1.722
313.5,1.151,1.245,1.223,1.725
314.0,1.152,1.247,1.225,1.727
314.5,1.154,1.249,1.227,1.73
315.0,1.157,1.251,1.229,1.734
315.5,1.16,1.254,1.232,1.738
316.0,1.163,1.257,1.235,1.741
316.5,1.165,1.26,1.237,1.743
317.0,1.167,1.262,1.237,1.744
317.5,1.169,1.263,1.237,1.747
318.0,1.171,1.264,1.238,1.751
318.5,1.172,1.264,1.24,1.756
319.0,1.173,1.264,1.242,1.759
319.5,1.174,1.264,1.243,1.761
320.0,1.174,1.265,1.243,1.763
320.5,1.174,1.265,1.241,1.765
321.0,1.173,1.266,1.24,1.764
321.5,1.171,1.265,1.24,1.761
322.0,1.17,1.264,1.241,1.755
322.5,1.168,1.262,1.242,1.749
323.0,1.167,1.259,1.241,1.746
323.5,1.165,1.256,1.239,1.745
324.0,1.163,1.253,1.235,1.743
324.5,1.16,1.25,1.231,1.739
325.0,1.158,1.247,1.227,1.733
325.5,1.154,1.243,1.223,1.726
326.0,1.149,1.237,1.218,1.719
326.5,1.144,1.231,1.214,1.712
327.0,1.14,1.225,1.208,1.704
327.5,1.135,1.219,1.201,1.691
328.0,1.129,1.213,1.194,1.675
328.5,1.122,1.206,1.186,1.66
329.0,1.114,1.198,1.178,1.649
329.5,1.105,1.19,1.169,1.641
330.0,1.097,1.183,1.16,1.631
330.5,1.088,1.174,1.151,1.618
331.0,1.079,1.165,1.142,1.603
331.5,1.07,1.154,1.132,1.587
332.0,1.06,1.143,1.122,1.569
332.5,1.051,1.13,1.11,1.552
333.0,1.042,1.118,1.098,1.536
333.5,1.031,1.106,1.086,1.519
334.0,1.02,1.094,1.074,1.503
334.5,1.007,1.082,1.062,1.487
335.0,0.994,1.069,1.05,1.469
335.5,0.981,1.055,1.037,1.448
336.0,0.968,1.041,1.024,1.425
336.5,0.955,1.027,1.009,1.402
337.0,0.942,1.013,0.995,1.379
337.5,0.929,1.0,0.98,1.358
338.0,0.914,0.987,0.965,1.339
338.5,0.9,0.972,0.95,1.319
339.0,0.885,0.956,0.933,1.298
339.5,0.869,0.939,0.914,1.275
340.0,0.854,0.924,0.896,1.251
340.5,0.839,0.907,0.879,1.226
341.0,0.824,0.889,0.863,1.2
341.5,0.811,0.869,0.847,1.175
342.0,0.799,0.849,0.829,1.152
342.5,0.787,0.833,0.811,1.134
343.0,0.777,0.82,0.795,1.119
343.5,0.764,0.808,0.782,1.102
344.0,0.747,0.794,0.769,1.078
344.5,0.725,0.775,0.755,1.049
345.0,0.703,0.755,0.739,1.02
345.5,0.684,0.737,0.723,0.992
346.0,0.67,0.724,0.708,0.969
346.5,0.658,0.713,0.695,0.95
347.0,0.648,0.7,0.681,0.935
347.5,0.635,0.685,0.664,0.917
348.0,0.621,0.667,0.646,0.896
348.5,0.608,0.652,0.63,0.872
349.0,0.597,0.641,0.615,0.849
349.5,0.587,0.633,0.603,0.828
350.0,0.575,0.625,0.589,0.808
350.5,0.56,0.615,0.574,0.787
351.0,0.547,0.602,0.559,0.767
351.5,0.535,0.584,0.545,0.749
352.0,0.524,0.563,0.533,0.733
352.5,0.511,0.54,0.523,0.716
353.0,0.495,0.52,0.512,0.697
353.5,0.478,0.505,0.501,0.679
354.0,0.464,0.494,0.49,0.662
354.5,0.454,0.484,0.478,0.646
355.0,0.446,0.473,0.464,0.628
355.5,0.437,0.462,0.45,0.609
356.0,0.43,0.452,0.438,0.593
356.5,0.424,0.443,0.43,0.582
357.0,0.417,0.433,0.424,0.572
357.5,0.406,0.422,0.417,0.561
358.0,0.395,0.41,0.411,0.547
358.5,0.386,0.4,0.403,0.531
359.0,0.379,0.391,0.394,0.515
359.5,0.373,0.384,0.384,0.499
360.0,0.364,0.378,0.374,0.484
360.5,0.352,0.373,0.363,0.472
361.0,0.34,0.365,0.353,0.461
361.5,0.331,0.355,0.345,0.451
362.0,0.326,0.344,0.336,0.442
362.5,0.323,0.334,0.328,0.434
363.0,0.319,0.324,0.32,0.425
363.5,0.311,0.316,0.313,0.415
364.0,0.3,0.31,0.305,0.404
364.5,0.289,0.308,0.298,0.393
365.0,0.282,0.306,0.291,0.384
365.5,0.277,0.302,0.286,0.376
366.0,0.274,0.293,0.282,0.369
366.5,0.27,0.283,0.278,0.364
367.0,0.266,0.273,0.271,0.358
367.5,0.26,0.266,0.261,0.35
368.0,0.255,0.26,0.251,0.341
368.5,0.252,0.258,0.246,0.331
369.0,0.25,0.257,0.245,0.323
369.5,0.245,0.255,0.245,0.32
370.0,0.237,0.252,0.244,0.32
370.5,0.226,0.247,0.237,0.321
371.0,0.215,0.236,0.226,0.318
371.5,0.203,0.218,0.211,0.31
372.0,0.195,0.196,0.2,0.301
372.5,0.198,0.18,0.198,0.297
373.0,0.21,0.178,0.205,0.298
373.5,0.219,0.193,0.212,0.299
374.0,0.212,0.214,0.212,0.296
374.5,0.193,0.23,0.205,0.29
375.0,0.177,0.233,0.196,0.282
375.5,0.174,0.225,0.193,0.273
376.0,0.18,0.214,0.198,0.264
376.5,0.187,0.208,0.208,0.26
377.0,0.187,0.209,0.214,0.259
377.5,0.18,0.212,0.211,0.258
378.0,0.176,0.21,0.2,0.256
378.5,0.177,0.198,0.187,0.254
379.0,0.181,0.187,0.179,0.253
379.5,0.182,0.186,0.175,0.253
380.0,0.178,0.199,0.173,0.254
380.5,0.17,0.217,0.168,0.254
381.0,0.162,0.226,0.16,0.252
381.5,0.157,0.222,0.153,0.248
382.0,0.158,0.208,0.152,0.242
382.5,0.165,0.191,0.155,0.237
383.0,0.171,0.18,0.156,0.233
383.5,0.173,0.174,0.156,0.228
384.0,0.172,0.169,0.157,0.223
384.5,0.168,0.161,0.16,0.218
385.0,0.163,0.153,0.161,0.213
385.5,0.155,0.15,0.16,0.207
386.0,0.149,0.155,0.159,0.2
386.5,0.146,0.163,0.158,0.196
387.0,0.149,0.17,0.157,0.196
387.5,0.153,0.173,0.155,0.199
388.0,0.154,0.175,0.154,0.202
388.5,0.153,0.177,0.155,0.205
389.0,0.15,0.177,0.156,0.205
389.5,0.144,0.173,0.155,0.203
390.0,0.137,0.164,0.153,0.198
390.5,0.13,0.156,0.151,0.193
391.0,0.127,0.151,0.151,0.189
391.5,0.129,0.152,0.149,0.188
392.0,0.135,0.155,0.144,0.189
392.5,0.141,0.159,0.139,0.19
393.0,0.146,0.159,0.137,0.191
393.5,0.147,0.153,0.138,0.191
394.0,0.143,0.144,0.138,0.189
394.5,0.134,0.135,0.13,0.183
395.0,0.124,0.132,0.117,0.175
395.5,0.115,0.136,0.104,0.167
396.0,0.112,0.14,0.097,0.162
396.5,0.115,0.141,0.099,0.164
397.0,0.122,0.139,0.105,0.169
397.5,0.127,0.137,0.112,0.172
398.0,0.126,0.137,0.117,0.17
398.5,0.122,0.136,0.121,0.165
399.0,0.121,0.13,0.126,0.162
399.5,0.125,0.119,0.13,0.165
400.0,0.131,0.112,0.131,0.17
400.5,0.132,0.112,0.127,0.171
401.0,0.126,0.121,0.122,0.165
401.5,0.116,0.13,0.118,0.159
402.0,0.109,0.133,0.117,0.157
402.5,0.107,0.13,0.118,0.159
403.0,0.108,0.124,0.119,0.16
403.5,0.11,0.118,0.116,0.159
404.0,0.109,0.115,0.11,0.155
404.5,0.108,0.115,0.104,0.15
405.0,0.109,0.117,0.1,0.146
405.5,0.113,0.119,0.1,0.145
406.0,0.119,0.121,0.101,0.145
