Batch,scan006
Instrument ID,084303
Data Mode,%T
Sample,Sample001
Cycle,Cycle01
Date Collected,04/02/2025
Time Collected,12:04:44
Entries,Data Points
nm,%T
390.0,XXX.XXX
391.0,XXX.XXX
392.0,XXX.XXX
393.0,XXX.XXX
394.0,67.500
395.0,69.901
396.0,74.487
397.0,75.195
398.0,72.614
399.0,73.524
400.0,75.578
401.0,75.615
402.0,75.242
403.0,75.570
404.0,77.285
405.0,78.486
406.0,78.109
407.0,77.836
408.0,76.305
409.0,74.505
410.0,75.654
411.0,77.403
412.0,78.206
413.0,78.990
414.0,78.290
415.0,76.792
416.0,77.595
417.0,80.033
418.0,81.478
419.0,82.011
420.0,82.301
421.0,81.822
422.0,80.944
423.0,80.593
424.0,80.931
425.0,81.797
426.0,82.544
427.0,82.712
428.0,82.540
429.0,81.888
430.0,81.802
431.0,83.658
432.0,84.652
433.0,83.529
434.0,84.130
435.0,85.845
436.0,85.123
437.0,83.442
438.0,83.377
439.0,84.873
440.0,86.601
441.0,87.610
442.0,87.703
443.0,86.274
444.0,84.661
445.0,84.983
446.0,85.962
447.0,86.395
448.0,86.652
449.0,87.248
450.0,88.394
451.0,88.465
452.0,87.232
453.0,86.850
454.0,87.963
455.0,88.987
456.0,88.127
457.0,86.761
458.0,87.634
459.0,89.293
460.0,89.088
461.0,88.272
462.0,88.440
463.0,88.711
464.0,88.851
465.0,89.586
466.0,90.383
467.0,90.319
468.0,89.550
469.0,89.101
470.0,89.565
471.0,90.154
472.0,90.344
473.0,90.515
474.0,90.497
475.0,90.329
476.0,90.051
477.0,89.551
478.0,89.665
479.0,90.165
480.0,90.618
481.0,91.619
482.0,92.187
483.0,91.745
484.0,91.205
485.0,90.470
486.0,89.824
487.0,90.656
488.0,92.122
489.0,91.697
490.0,90.393
491.0,90.633
492.0,91.674
493.0,92.346
494.0,92.449
495.0,91.796
496.0,91.404
497.0,92.171
498.0,92.761
499.0,92.352
500.0,91.895
501.0,91.646
502.0,91.761
503.0,92.304
504.0,92.319
505.0,92.164
506.0,92.588
507.0,92.914
508.0,93.014
509.0,92.954
510.0,92.985
511.0,93.685
512.0,93.910
513.0,93.360
514.0,93.124
515.0,93.011
516.0,93.036
517.0,93.356
518.0,93.690
519.0,93.761
520.0,93.432
521.0,93.422
522.0,93.759
523.0,93.713
524.0,93.725
525.0,94.215
526.0,94.245
527.0,93.776
528.0,93.860
529.0,94.107
530.0,94.200
531.0,94.517
532.0,94.482
533.0,94.097
534.0,94.093
535.0,94.221
536.0,94.267
537.0,94.477
538.0,94.364
539.0,94.120
540.0,94.900
541.0,95.791
542.0,95.234
543.0,94.506
544.0,94.848
545.0,95.168
546.0,95.129
547.0,95.150
548.0,95.004
549.0,95.103
550.0,95.473
551.0,95.420
552.0,95.164
553.0,95.012
554.0,94.862
555.0,95.010
556.0,95.476
557.0,95.462
558.0,95.068
559.0,95.431
560.0,96.219
561.0,96.273
562.0,95.797
563.0,95.437
564.0,95.519
565.0,96.061
566.0,96.418
567.0,96.320
568.0,96.166
569.0,96.028
570.0,95.555
571.0,94.956
572.0,95.022
573.0,95.812
574.0,96.834
575.0,97.334
576.0,96.747
577.0,95.935
578.0,95.789
579.0,96.213
580.0,96.936
581.0,97.275
582.0,97.096
583.0,97.070
584.0,97.087
585.0,97.052
586.0,97.271
587.0,97.403
588.0,97.177
589.0,97.004
590.0,97.193
591.0,97.357
592.0,97.119
593.0,96.949
594.0,97.246
595.0,97.572
596.0,97.594
597.0,97.500
598.0,97.581
599.0,97.923
600.0,98.125
601.0,97.849
602.0,97.334
603.0,97.107
604.0,97.548
605.0,97.992
606.0,97.719
607.0,97.519
608.0,97.961
609.0,98.342
610.0,98.195
611.0,97.886
612.0,97.756
613.0,97.802
614.0,98.031
615.0,98.075
616.0,97.645
617.0,97.352
618.0,97.564
619.0,97.784
620.0,97.817
621.0,97.887
622.0,98.011
623.0,98.013
624.0,97.909
625.0,97.942
626.0,97.924
627.0,97.826
628.0,98.036
629.0,98.189
630.0,97.924
631.0,97.917
632.0,98.298
633.0,98.293
634.0,97.997
635.0,97.918
636.0,97.932
637.0,97.810
638.0,97.714
639.0,97.916
640.0,98.258
641.0,98.486
642.0,98.549
643.0,98.438
644.0,98.241
645.0,98.149
646.0,98.336
647.0,98.584
648.0,98.444
649.0,98.168
650.0,98.259
651.0,98.250
652.0,97.944
653.0,97.992
654.0,98.276
655.0,98.375
656.0,98.382
657.0,98.396
658.0,98.405
659.0,98.254
660.0,97.929
661.0,97.869
662.0,98.178
663.0,98.371
664.0,98.391
665.0,98.405
666.0,98.287
667.0,98.185
668.0,98.367
669.0,98.656
670.0,98.585
671.0,98.326
672.0,98.460
673.0,98.618
674.0,98.456
675.0,98.391
676.0,98.393
677.0,98.377
678.0,98.516
679.0,98.577
680.0,98.404
681.0,98.193
682.0,98.205
683.0,98.398
684.0,98.479
685.0,98.496
686.0,98.532
687.0,98.488
688.0,98.406
689.0,98.205
690.0,98.051
691.0,98.338
692.0,98.577
693.0,98.378
694.0,98.204
695.0,98.174
696.0,98.215
697.0,98.231
698.0,98.010
699.0,97.991
700.0,98.446
701.0,98.700
702.0,98.591
703.0,98.694
704.0,98.844
705.0,98.707
706.0,98.736
707.0,98.831
708.0,98.378
709.0,97.841
710.0,97.841
711.0,98.037
712.0,98.148
713.0,98.351
714.0,98.581
715.0,98.598
716.0,98.600
717.0,98.752
718.0,98.760
719.0,98.673
720.0,98.531
721.0,98.236
722.0,98.248
723.0,98.572
724.0,98.898
725.0,99.057
726.0,98.722
727.0,98.345
728.0,98.325
729.0,98.172
730.0,98.166
731.0,98.685
732.0,98.889
733.0,98.671
734.0,98.788
735.0,98.907
736.0,98.442
737.0,98.126
738.0,98.519
739.0,98.734
740.0,98.468
741.0,98.422
742.0,98.565
743.0,98.606
744.0,98.816
745.0,99.020
746.0,98.818
747.0,XXX.XXX
748.0,XXX.XXX
749.0,XXX.XXX
750.0,XXX.XXX
