Batch,scan002
Instrument ID,084303
Data Mode,%T
Sample,Sample001
Cycle,Cycle01
Date Collected,15/10/2025
Time Collected,07:13:50
Entries,Data Points
nm,%T
390.0,XXX.XXX
391.0,XXX.XXX
392.0,XXX.XXX
393.0,XXX.XXX
394.0,56.661
395.0,58.840
396.0,62.229
397.0,63.471
398.0,60.546
399.0,57.666
400.0,57.430
401.0,59.117
402.0,62.387
403.0,63.837
404.0,63.261
405.0,64.314
406.0,65.367
407.0,65.315
408.0,66.161
409.0,67.025
410.0,66.322
411.0,65.367
412.0,67.097
413.0,69.624
414.0,68.649
415.0,67.692
416.0,69.917
417.0,71.469
418.0,71.420
419.0,71.698
420.0,72.693
421.0,73.383
422.0,72.588
423.0,72.567
424.0,74.036
425.0,73.789
426.0,72.304
427.0,72.067
428.0,72.672
429.0,73.840
430.0,75.156
431.0,75.066
432.0,74.988
433.0,75.914
434.0,76.448
435.0,76.881
436.0,76.479
437.0,75.512
438.0,76.638
439.0,77.970
440.0,76.495
441.0,74.907
442.0,75.660
443.0,77.353
444.0,78.849
445.0,79.127
446.0,78.468
447.0,78.098
448.0,77.679
449.0,78.124
450.0,79.587
451.0,79.857
452.0,79.298
453.0,79.211
454.0,78.445
455.0,77.631
456.0,78.433
457.0,79.212
458.0,79.204
459.0,79.921
460.0,80.979
461.0,81.367
462.0,81.380
463.0,81.142
464.0,80.846
465.0,80.893
466.0,81.025
467.0,81.494
468.0,82.447
469.0,82.689
470.0,82.085
471.0,82.119
472.0,82.853
473.0,82.813
474.0,81.952
475.0,81.936
476.0,82.742
477.0,82.818
478.0,82.807
479.0,83.390
480.0,83.209
481.0,82.346
482.0,82.042
483.0,82.394
484.0,83.118
485.0,83.934
486.0,84.125
487.0,83.545
488.0,83.489
489.0,84.281
490.0,84.480
491.0,84.221
492.0,84.574
493.0,84.884
494.0,84.648
495.0,84.613
496.0,84.949
497.0,85.085
498.0,85.102
499.0,85.129
500.0,84.900
501.0,85.095
502.0,85.720
503.0,85.568
504.0,85.302
505.0,85.795
506.0,85.841
507.0,85.149
508.0,84.943
509.0,85.651
510.0,86.456
511.0,86.183
512.0,85.347
513.0,85.775
514.0,86.697
515.0,86.349
516.0,85.890
517.0,86.331
518.0,86.838
519.0,86.908
520.0,86.498
521.0,86.060
522.0,86.000
523.0,86.088
524.0,86.272
525.0,86.626
526.0,86.939
527.0,87.088
528.0,87.052
529.0,86.854
530.0,86.709
531.0,86.612
532.0,86.657
533.0,87.134
534.0,87.702
535.0,87.747
536.0,87.255
537.0,87.088
538.0,87.665
539.0,87.952
540.0,87.511
541.0,87.218
542.0,87.424
543.0,87.733
544.0,87.722
545.0,87.426
546.0,87.208
547.0,87.054
548.0,87.068
549.0,87.588
550.0,88.156
551.0,88.062
552.0,87.704
553.0,87.821
554.0,87.970
555.0,87.820
556.0,88.111
557.0,88.889
558.0,89.222
559.0,88.544
560.0,87.754
561.0,88.006
562.0,88.380
563.0,88.233
564.0,88.392
565.0,88.437
566.0,88.158
567.0,88.635
568.0,89.498
569.0,89.726
570.0,89.295
571.0,88.376
572.0,88.160
573.0,89.267
574.0,89.848
575.0,89.312
576.0,88.947
577.0,89.054
578.0,89.197
579.0,89.021
580.0,88.572
581.0,88.365
582.0,88.610
583.0,89.025
584.0,89.290
585.0,89.254
586.0,89.168
587.0,89.266
588.0,89.276
589.0,89.129
590.0,89.186
591.0,89.402
592.0,89.446
593.0,89.438
594.0,89.411
595.0,89.274
596.0,89.304
597.0,89.468
598.0,89.480
599.0,89.381
600.0,89.382
601.0,89.553
602.0,89.642
603.0,89.499
604.0,89.439
605.0,89.513
606.0,89.520
607.0,89.678
608.0,89.885
609.0,89.733
610.0,89.339
611.0,89.198
612.0,89.613
613.0,89.997
614.0,89.833
615.0,89.551
616.0,89.549
617.0,89.761
618.0,89.860
619.0,89.818
620.0,89.797
621.0,89.688
622.0,89.606
623.0,89.651
624.0,89.677
625.0,89.754
626.0,89.914
627.0,89.943
628.0,89.765
629.0,89.704
630.0,89.985
631.0,90.166
632.0,90.105
633.0,90.070
634.0,89.847
635.0,89.662
636.0,89.857
637.0,89.867
638.0,89.613
639.0,89.784
640.0,90.216
641.0,90.177
642.0,89.858
643.0,89.859
644.0,90.036
645.0,90.048
646.0,90.020
647.0,90.060
648.0,90.075
649.0,90.053
650.0,90.015
651.0,90.053
652.0,90.107
653.0,90.164
654.0,90.347
655.0,90.273
656.0,89.968
657.0,90.077
658.0,90.379
659.0,90.257
660.0,89.974
661.0,90.061
662.0,90.254
663.0,90.170
664.0,89.875
665.0,89.733
666.0,90.149
667.0,90.553
668.0,90.376
669.0,90.098
670.0,90.054
671.0,90.233
672.0,90.481
673.0,90.428
674.0,90.107
675.0,90.121
676.0,90.539
677.0,90.602
678.0,90.167
679.0,90.009
680.0,90.414
681.0,90.642
682.0,90.399
683.0,90.237
684.0,90.288
685.0,90.394
686.0,90.523
687.0,90.459
688.0,90.081
689.0,89.799
690.0,90.021
691.0,90.292
692.0,90.143
693.0,89.974
694.0,90.100
695.0,90.254
696.0,90.266
697.0,90.200
698.0,90.186
699.0,90.372
700.0,90.524
701.0,90.403
702.0,90.244
703.0,90.162
704.0,90.178
705.0,90.241
706.0,90.130
707.0,90.049
708.0,90.272
709.0,90.620
710.0,90.584
711.0,90.066
712.0,89.862
713.0,90.230
714.0,90.523
715.0,90.645
716.0,90.771
717.0,90.673
718.0,90.564
719.0,90.736
720.0,90.763
721.0,90.629
722.0,90.590
723.0,90.439
724.0,90.370
725.0,90.560
726.0,90.541
727.0,90.237
728.0,90.185
729.0,90.532
730.0,90.803
731.0,90.879
732.0,90.946
733.0,90.854
734.0,90.686
735.0,90.616
736.0,90.594
737.0,90.656
738.0,90.644
739.0,90.562
740.0,90.553
741.0,90.588
742.0,90.701
743.0,90.595
744.0,90.294
745.0,90.254
746.0,90.265
747.0,XXX.XXX
748.0,XXX.XXX
749.0,XXX.XXX
750.0,XXX.XXX
