Batch,scan005
Instrument ID,084303
Data Mode,%T
Sample,Sample001
Cycle,Cycle01
Date Collected,16/10/2025
Time Collected,05:40:34
Entries,Data Points
nm,%T
390.0,XXX.XXX
391.0,XXX.XXX
392.0,XXX.XXX
393.0,XXX.XXX
394.0,35.410
395.0,36.279
396.0,36.092
397.0,36.269
398.0,37.213
399.0,37.922
400.0,39.237
401.0,39.918
402.0,39.579
403.0,40.735
404.0,42.445
405.0,42.572
406.0,42.450
407.0,42.937
408.0,43.014
409.0,42.556
410.0,42.378
411.0,42.395
412.0,42.744
413.0,44.558
414.0,46.700
415.0,47.110
416.0,46.743
417.0,47.597
418.0,48.452
419.0,47.139
420.0,46.059
421.0,47.792
422.0,49.692
423.0,49.678
424.0,49.693
425.0,50.647
426.0,50.686
427.0,50.009
428.0,50.937
429.0,52.108
430.0,52.067
431.0,52.587
432.0,53.174
433.0,53.057
434.0,53.229
435.0,53.524
436.0,54.084
437.0,55.160
438.0,55.677
439.0,55.397
440.0,55.643
441.0,56.912
442.0,58.044
443.0,58.004
444.0,57.206
445.0,57.152
446.0,58.195
447.0,58.787
448.0,58.513
449.0,58.640
450.0,59.487
451.0,60.340
452.0,60.390
453.0,59.926
454.0,60.544
455.0,62.029
456.0,62.516
457.0,61.984
458.0,61.890
459.0,62.096
460.0,62.029
461.0,62.734
462.0,63.681
463.0,63.848
464.0,64.137
465.0,64.768
466.0,65.198
467.0,65.146
468.0,65.002
469.0,65.299
470.0,65.657
471.0,65.767
472.0,65.867
473.0,66.263
474.0,67.101
475.0,67.639
476.0,67.413
477.0,67.557
478.0,68.250
479.0,68.389
480.0,68.092
481.0,68.065
482.0,68.435
483.0,68.805
484.0,68.668
485.0,68.667
486.0,69.396
487.0,70.289
488.0,71.006
489.0,71.053
490.0,70.948
491.0,71.780
492.0,72.194
493.0,71.644
494.0,71.728
495.0,72.430
496.0,72.637
497.0,72.204
498.0,72.220
499.0,73.167
500.0,73.549
501.0,73.130
502.0,73.422
503.0,74.103
504.0,74.085
505.0,74.065
506.0,74.912
507.0,75.763
508.0,75.505
509.0,75.004
510.0,75.261
511.0,75.608
512.0,75.796
513.0,76.050
514.0,76.051
515.0,76.141
516.0,76.706
517.0,77.047
518.0,76.952
519.0,76.792
520.0,76.367
521.0,76.249
522.0,77.161
523.0,77.954
524.0,77.773
525.0,77.484
526.0,77.678
527.0,78.080
528.0,78.403
529.0,78.691
530.0,79.019
531.0,79.113
532.0,78.963
533.0,79.039
534.0,79.347
535.0,79.590
536.0,79.826
537.0,80.112
538.0,80.082
539.0,79.520
540.0,79.251
541.0,79.749
542.0,80.198
543.0,80.249
544.0,80.144
545.0,80.049
546.0,80.330
547.0,80.797
548.0,80.915
549.0,80.938
550.0,81.191
551.0,81.334
552.0,81.177
553.0,80.970
554.0,80.889
555.0,80.998
556.0,81.457
557.0,81.886
558.0,81.513
559.0,81.099
560.0,81.375
561.0,81.423
562.0,81.428
563.0,81.885
564.0,81.986
565.0,81.982
566.0,82.090
567.0,81.527
568.0,81.104
569.0,81.506
570.0,81.709
571.0,81.439
572.0,81.554
573.0,82.349
574.0,83.053
575.0,83.130
576.0,82.660
577.0,81.645
578.0,81.602
579.0,84.979
580.0,88.627
581.0,87.250
582.0,83.845
583.0,83.247
584.0,83.998
585.0,83.888
586.0,83.675
587.0,84.093
588.0,84.483
589.0,84.242
590.0,83.916
591.0,85.786
592.0,89.350
593.0,91.115
594.0,91.390
595.0,92.077
596.0,92.536
597.0,91.080
598.0,88.921
599.0,89.063
600.0,90.101
601.0,89.991
602.0,89.942
603.0,90.451
604.0,90.459
605.0,88.693
606.0,85.943
607.0,84.761
608.0,85.068
609.0,85.338
610.0,85.260
611.0,84.554
612.0,83.987
613.0,84.529
614.0,85.145
615.0,85.321
616.0,85.832
617.0,86.302
618.0,85.467
619.0,84.122
620.0,83.840
621.0,83.371
622.0,82.463
623.0,83.076
624.0,84.545
625.0,85.289
626.0,86.136
627.0,87.372
628.0,85.771
629.0,81.272
630.0,79.838
631.0,82.044
632.0,83.224
633.0,83.564
634.0,84.190
635.0,84.156
636.0,84.393
637.0,84.649
638.0,83.834
639.0,83.362
640.0,84.143
641.0,84.533
642.0,83.499
643.0,83.777
644.0,84.889
645.0,83.249
646.0,82.407
647.0,84.733
648.0,85.606
649.0,84.693
650.0,84.600
651.0,84.241
652.0,83.587
653.0,84.263
654.0,85.117
655.0,84.834
656.0,85.073
657.0,85.928
658.0,85.111
659.0,84.200
660.0,84.850
661.0,85.268
662.0,85.059
663.0,83.327
664.0,80.822
665.0,81.073
666.0,82.393
667.0,82.962
668.0,84.948
669.0,86.726
670.0,85.936
671.0,84.880
672.0,85.320
673.0,85.962
674.0,86.471
675.0,87.202
676.0,86.788
677.0,85.899
678.0,86.149
679.0,85.747
680.0,84.770
681.0,85.633
682.0,87.128
683.0,86.890
684.0,85.359
685.0,84.770
686.0,85.527
687.0,85.435
688.0,84.611
689.0,84.232
690.0,83.408
691.0,83.766
692.0,86.165
693.0,87.335
694.0,87.029
695.0,86.472
696.0,85.460
697.0,85.281
698.0,86.153
699.0,86.549
700.0,85.802
701.0,85.273
702.0,86.238
703.0,86.814
704.0,86.021
705.0,85.428
706.0,85.638
707.0,86.032
708.0,85.955
709.0,86.225
710.0,86.797
711.0,86.836
712.0,87.596
713.0,86.419
714.0,81.679
715.0,79.375
716.0,78.080
717.0,74.033
718.0,73.995
719.0,77.526
720.0,77.979
721.0,78.355
722.0,79.085
723.0,76.818
724.0,76.620
725.0,80.233
726.0,83.036
727.0,85.118
728.0,87.132
729.0,88.564
730.0,89.536
731.0,89.434
732.0,89.194
733.0,89.260
734.0,88.404
735.0,87.124
736.0,86.652
737.0,87.196
738.0,88.528
739.0,89.591
740.0,89.703
741.0,89.829
742.0,90.241
743.0,90.228
744.0,90.074
745.0,90.121
746.0,89.959
747.0,XXX.XXX
748.0,XXX.XXX
749.0,XXX.XXX
750.0,XXX.XXX
