Batch	scan002
Instrument ID	084303
Data Mode	%T
Sample	Sample001
Cycle	Cycle01
Date Collected	19/02/2025
Time Collected	12:59:46
Entries	Data Points
nm	%T
390.0	44.922
391.0	40.351
392.0	43.282
393.0	43.747
394.0	43.580
395.0	49.177
396.0	46.856
397.0	45.366
398.0	48.141
399.0	48.696
400.0	49.436
401.0	47.756
402.0	48.657
403.0	48.708
404.0	49.950
405.0	51.830
406.0	53.352
407.0	52.591
408.0	52.396
409.0	47.330
410.0	55.066
411.0	54.671
412.0	54.146
413.0	55.774
414.0	53.813
415.0	55.155
416.0	57.547
417.0	55.559
418.0	56.254
419.0	54.379
420.0	58.169
421.0	59.086
422.0	56.319
423.0	60.007
424.0	57.237
425.0	59.880
426.0	61.701
427.0	61.309
428.0	60.822
429.0	62.062
430.0	62.064
431.0	63.245
432.0	64.180
433.0	62.443
434.0	63.895
435.0	63.505
436.0	62.551
437.0	64.677
438.0	64.263
439.0	64.350
440.0	64.000
441.0	67.301
442.0	67.485
443.0	65.232
444.0	66.553
445.0	69.143
446.0	67.121
447.0	68.178
448.0	69.433
449.0	68.158
450.0	66.999
451.0	69.834
452.0	67.224
453.0	69.574
454.0	67.851
455.0	70.606
456.0	70.137
457.0	73.125
458.0	70.055
459.0	72.695
460.0	70.245
461.0	69.888
462.0	69.761
463.0	72.056
464.0	71.941
465.0	73.437
466.0	74.371
467.0	74.558
468.0	73.078
469.0	73.962
470.0	74.068
471.0	74.079
472.0	73.525
473.0	75.087
474.0	74.767
475.0	74.701
476.0	75.329
477.0	75.071
478.0	76.930
479.0	77.279
480.0	76.301
481.0	77.259
482.0	76.886
483.0	76.437
484.0	76.598
485.0	78.532
486.0	77.195
487.0	76.489
488.0	77.559
489.0	78.122
490.0	77.885
491.0	78.964
492.0	80.153
493.0	78.759
494.0	79.602
495.0	79.683
496.0	79.017
497.0	78.994
498.0	80.171
499.0	80.689
500.0	80.179
501.0	79.926
502.0	79.194
503.0	81.226
504.0	80.175
505.0	81.252
506.0	80.750
507.0	80.319
508.0	81.686
509.0	81.535
510.0	82.595
511.0	83.702
512.0	82.637
513.0	82.962
514.0	81.609
515.0	81.882
516.0	81.531
517.0	82.653
518.0	82.720
519.0	83.248
520.0	82.801
521.0	83.975
522.0	84.993
523.0	83.762
524.0	84.133
525.0	82.680
526.0	84.207
527.0	84.217
528.0	83.958
529.0	84.983
530.0	85.199
531.0	85.360
532.0	85.375
533.0	85.030
534.0	84.930
535.0	85.126
536.0	85.869
537.0	85.840
538.0	85.416
539.0	86.285
540.0	84.686
541.0	86.004
542.0	85.528
543.0	85.526
544.0	86.657
545.0	86.321
546.0	86.254
547.0	86.225
548.0	86.215
549.0	87.882
550.0	85.739
551.0	85.995
552.0	87.226
553.0	87.336
554.0	86.319
555.0	86.898
556.0	87.376
557.0	87.528
558.0	87.251
559.0	87.906
560.0	87.336
561.0	87.861
562.0	87.074
563.0	87.892
564.0	87.915
565.0	87.656
566.0	87.805
567.0	87.646
568.0	89.700
569.0	88.721
570.0	87.479
571.0	88.378
572.0	88.025
573.0	88.728
574.0	87.330
575.0	88.398
576.0	89.371
577.0	88.098
578.0	87.756
579.0	88.236
580.0	88.835
581.0	89.057
582.0	89.397
583.0	89.523
584.0	89.097
585.0	89.351
586.0	89.641
587.0	88.950
588.0	89.784
589.0	89.716
590.0	90.140
591.0	89.902
592.0	90.074
593.0	89.772
594.0	89.887
595.0	90.604
596.0	89.954
597.0	90.617
598.0	90.041
599.0	90.353
600.0	90.110
601.0	90.325
602.0	90.811
603.0	90.817
604.0	90.536
605.0	91.141
606.0	90.346
607.0	90.216
608.0	91.079
609.0	90.767
610.0	90.187
611.0	90.921
612.0	90.770
613.0	91.224
614.0	91.378
615.0	91.003
616.0	91.014
617.0	90.876
618.0	91.181
619.0	90.861
620.0	91.725
621.0	91.231
622.0	91.056
623.0	91.215
624.0	91.149
625.0	91.876
626.0	90.881
627.0	91.563
628.0	91.385
629.0	91.657
630.0	91.766
631.0	91.190
632.0	91.920
633.0	91.783
634.0	92.337
635.0	91.668
636.0	92.008
637.0	91.954
638.0	92.008
639.0	92.020
640.0	91.777
641.0	91.765
642.0	91.599
643.0	91.937
644.0	91.345
645.0	91.862
646.0	92.017
647.0	92.071
648.0	92.003
649.0	92.265
650.0	92.039
651.0	91.808
652.0	92.087
653.0	92.427
654.0	91.459
655.0	92.073
656.0	92.213
657.0	92.758
658.0	92.176
659.0	92.423
660.0	92.767
661.0	91.965
662.0	91.717
663.0	92.333
664.0	92.253
665.0	92.115
666.0	92.618
667.0	92.075
668.0	92.596
669.0	92.414
670.0	93.001
671.0	92.607
672.0	92.265
673.0	92.446
674.0	92.236
675.0	92.617
676.0	92.343
677.0	92.522
678.0	92.347
679.0	92.586
680.0	92.582
681.0	92.784
682.0	92.450
683.0	93.100
684.0	92.445
685.0	92.810
686.0	92.498
687.0	93.037
688.0	92.878
689.0	92.929
690.0	93.176
691.0	92.200
692.0	92.470
693.0	92.571
694.0	92.553
695.0	92.506
696.0	92.230
697.0	92.644
698.0	92.359
699.0	93.350
700.0	92.563
701.0	92.245
702.0	92.670
703.0	92.949
704.0	92.831
705.0	92.740
706.0	92.990
707.0	92.869
708.0	93.168
709.0	93.646
710.0	93.329
711.0	92.844
712.0	92.996
713.0	92.917
714.0	92.475
715.0	93.528
716.0	92.976
717.0	92.463
718.0	92.585
719.0	92.093
720.0	92.589
721.0	92.841
722.0	93.260
723.0	93.231
724.0	92.677
725.0	92.552
726.0	93.165
727.0	93.196
728.0	92.772
729.0	93.442
730.0	92.769
731.0	93.042
732.0	92.617
733.0	93.326
734.0	93.121
735.0	93.235
736.0	92.879
737.0	93.212
738.0	92.975
739.0	93.927
740.0	93.163
741.0	93.765
742.0	92.830
743.0	92.924
744.0	93.100
745.0	93.099
746.0	93.754
747.0	93.219
748.0	93.331
749.0	93.479
750.0	93.036
