,     Angle,       PSD
0,5.0,2288
1,5.04003,2320
2,5.08006,2265
3,5.1201,2337
4,5.16013,2294
5,5.20016,2340
6,5.24019,2296
7,5.28023,2214
8,5.32026,2276
9,5.36029,2223
10,5.40032,2208
11,5.44035,2259
12,5.48039,2087
13,5.52042,2197
14,5.56045,2174
15,5.60048,2057
16,5.64052,2233
17,5.68055,2120
18,5.72058,2055
19,5.76061,2080
20,5.80064,2121
21,5.84068,1980
22,5.88071,2071
23,5.92074,2079
24,5.96077,2033
25,6.0008,2096
26,6.04084,1991
27,6.08087,2004
28,6.1209,2007
29,6.16093,2004
30,6.20097,2017
31,6.241,1995
32,6.28103,2010
33,6.32106,1942
34,6.36109,1914
35,6.40113,2034
36,6.44116,1943
37,6.48119,1936
38,6.52122,1873
39,6.56126,1930
40,6.60129,1950
41,6.64132,1883
42,6.68135,1926
43,6.72138,1843
44,6.76142,1987
45,6.80145,1894
46,6.84148,1917
47,6.88151,1826
48,6.92155,1897
49,6.96158,1812
50,7.00161,1886
51,7.04164,1819
52,7.08167,1882
53,7.12171,1864
54,7.16174,1872
55,7.20177,1941
56,7.2418,1902
57,7.28184,1857
58,7.32187,1828
59,7.3619,1879
60,7.40193,1856
61,7.44196,1863
62,7.482,1867
63,7.52203,1911
64,7.56206,1756
65,7.60209,1829
66,7.64213,1811
67,7.68216,1855
68,7.72219,1794
69,7.76222,1850
70,7.80225,1928
71,7.84229,1806
72,7.88232,1804
73,7.92235,1819
74,7.96238,1886
75,8.00241,1780
76,8.04245,1842
77,8.08248,1881
78,8.12251,1814
79,8.16254,1825
80,8.20258,1879
81,8.24261,1846
82,8.28264,1826
83,8.32267,1912
84,8.3627,1869
85,8.40274,1871
86,8.44277,1949
87,8.4828,1843
88,8.52283,1783
89,8.56287,1887
90,8.6029,1927
91,8.64293,1871
92,8.68296,1869
93,8.72299,1907
94,8.76303,1901
95,8.80306,1968
96,8.84309,1956
97,8.88312,2051
98,8.92316,2029
99,8.96319,1951
100,9.00322,1905
101,9.04325,1960
102,9.08328,1927
103,9.12332,2039
104,9.16335,1966
105,9.20338,1940
106,9.24341,1972
107,9.28345,1934
108,9.32348,1935
109,9.36351,1983
110,9.40354,1938
111,9.44357,1974
112,9.48361,2019
113,9.52364,1928
114,9.56367,2066
115,9.6037,2040
116,9.64374,2072
117,9.68377,1978
118,9.7238,2004
119,9.76383,2040
120,9.80386,2028
121,9.8439,2008
122,9.88393,1972
123,9.92396,2023
124,9.96399,2119
125,10.004,2022
126,10.0441,2098
127,10.0841,2153
128,10.1241,2116
129,10.1642,2121
130,10.2042,2088
131,10.2442,2124
132,10.2843,2117
133,10.3243,2201
134,10.3643,2101
135,10.4043,2075
136,10.4444,2219
137,10.4844,2161
138,10.5244,2167
139,10.5645,2242
140,10.6045,2244
141,10.6445,2165
142,10.6846,2204
143,10.7246,2217
144,10.7646,2251
145,10.8047,2276
146,10.8447,2260
147,10.8847,2283
148,10.9248,2273
149,10.9648,2351
150,11.0048,2368
151,11.0449,2292
152,11.0849,2456
153,11.1249,2429
154,11.165,2346
155,11.205,2502
156,11.245,2415
157,11.2851,2363
158,11.3251,2515
159,11.3651,2515
160,11.4052,2443
161,11.4452,2475
162,11.4852,2483
163,11.5252,2538
164,11.5653,2581
165,11.6053,2517
166,11.6453,2585
167,11.6854,2589
168,11.7254,2577
169,11.7654,2605
170,11.8055,2635
171,11.8455,2678
172,11.8855,2635
173,11.9256,2582
174,11.9656,2735
175,12.0056,2719
176,12.0457,2748
177,12.0857,2699
178,12.1257,2688
179,12.1658,2687
180,12.2058,2830
181,12.2458,2818
182,12.2859,2815
183,12.3259,2758
184,12.3659,2767
185,12.406,2677
186,12.446,2829
187,12.486,2909
188,12.5261,2938
189,12.5661,2884
190,12.6061,2937
191,12.6462,2924
192,12.6862,3002
193,12.7262,2920
194,12.7662,2989
195,12.8063,2999
196,12.8463,2950
197,12.8863,2997
198,12.9264,2973
199,12.9664,3070
200,13.0064,3053
201,13.0465,2972
202,13.0865,3087
203,13.1265,3119
204,13.1666,3103
205,13.2066,3025
206,13.2466,3163
207,13.2867,3151
208,13.3267,3211
209,13.3667,3165
210,13.4068,3067
211,13.4468,3214
212,13.4868,3217
213,13.5269,3143
214,13.5669,3169
215,13.6069,3080
216,13.647,3226
217,13.687,3268
218,13.727,3236
219,13.7671,3338
220,13.8071,3230
221,13.8471,3234
222,13.8871,3281
223,13.9272,3224
224,13.9672,3207
225,14.0072,3302
226,14.0473,3329
227,14.0873,3342
228,14.1273,3462
229,14.1674,3295
230,14.2074,3344
231,14.2474,3399
232,14.2875,3461
233,14.3275,3430
234,14.3675,3279
235,14.4076,3385
236,14.4476,3468
237,14.4876,3466
238,14.5277,3398
239,14.5677,3432
240,14.6077,3606
241,14.6478,3516
242,14.6878,3499
243,14.7278,3576
244,14.7679,3613
245,14.8079,3653
246,14.8479,3756
247,14.888,3982
248,14.928,4018
249,14.968,4132
250,15.008,4021
251,15.0481,3797
252,15.0881,3683
253,15.1281,3637
254,15.1682,3574
255,15.2082,3537
256,15.2482,3407
257,15.2883,3480
258,15.3283,3584
259,15.3683,3404
260,15.4084,3556
261,15.4484,3496
262,15.4884,3457
263,15.5285,3498
264,15.5685,3394
265,15.6085,3497
266,15.6486,3487
267,15.6886,3488
268,15.7286,3566
269,15.7687,3515
270,15.8087,3438
271,15.8487,3414
272,15.8888,3360
273,15.9288,3364
274,15.9688,3398
275,16.0089,3337
276,16.0489,3438
277,16.0889,3423
278,16.129,3414
279,16.169,3397
280,16.209,3426
281,16.249,3431
282,16.2891,3372
283,16.3291,3359
284,16.3691,3434
285,16.4092,3395
286,16.4492,3253
287,16.4892,3352
288,16.5293,3308
289,16.5693,3371
290,16.6093,3343
291,16.6494,3182
292,16.6894,3153
293,16.7294,3244
294,16.7695,3194
295,16.8095,3257
296,16.8495,3345
297,16.8896,3183
298,16.9296,3171
299,16.9696,3203
300,17.0097,3236
301,17.0497,3244
302,17.0897,3048
303,17.1298,3085
304,17.1698,3142
305,17.2098,3104
306,17.2499,3143
307,17.2899,3066
308,17.3299,3068
309,17.3699,3058
310,17.41,3041
311,17.45,3024
312,17.49,3121
313,17.5301,3003
314,17.5701,3020
315,17.6101,3080
316,17.6502,3011
317,17.6902,2925
318,17.7302,2923
319,17.7703,3050
320,17.8103,2910
321,17.8503,2926
322,17.8904,2883
323,17.9304,2853
324,17.9704,2852
325,18.0105,2948
326,18.0505,2860
327,18.0905,2910
328,18.1306,2844
329,18.1706,2870
330,18.2106,2844
331,18.2507,2811
332,18.2907,2808
333,18.3307,2770
334,18.3708,2761
335,18.4108,2739
336,18.4508,2920
337,18.4909,2804
338,18.5309,2776
339,18.5709,2751
340,18.6109,2661
341,18.651,2763
342,18.691,2764
343,18.731,2790
344,18.7711,2698
345,18.8111,2785
346,18.8511,2700
347,18.8912,2806
348,18.9312,2778
349,18.9712,2671
350,19.0113,2714
351,19.0513,2738
352,19.0913,2688
353,19.1314,2691
354,19.1714,2776
355,19.2114,2786
356,19.2515,2701
357,19.2915,2696
358,19.3315,2734
359,19.3716,2664
360,19.4116,2742
361,19.4516,2714
362,19.4917,2799
363,19.5317,2643
364,19.5717,2711
365,19.6118,2764
366,19.6518,2750
367,19.6918,2775
368,19.7318,2738
369,19.7719,2680
370,19.8119,2861
371,19.8519,2759
372,19.892,2801
373,19.932,2734
374,19.972,2809
375,20.0121,2797
376,20.0521,2717
377,20.0921,2833
378,20.1322,2825
379,20.1722,2840
380,20.2122,2815
381,20.2523,2816
382,20.2923,2858
383,20.3323,2906
384,20.3724,3008
385,20.4124,2919
386,20.4524,2927
387,20.4925,2977
388,20.5325,2956
389,20.5725,3016
390,20.6126,3048
391,20.6526,3076
392,20.6926,3036
393,20.7327,3129
394,20.7727,3065
395,20.8127,3125
396,20.8528,3142
397,20.8928,3122
398,20.9328,3079
399,20.9728,3252
400,21.0129,3264
401,21.0529,3212
402,21.0929,3280
403,21.133,3293
404,21.173,3351
405,21.213,3266
406,21.2531,3368
407,21.2931,3342
408,21.3331,3351
409,21.3732,3443
410,21.4132,3553
411,21.4532,3365
412,21.4933,3400
413,21.5333,3502
414,21.5733,3508
415,21.6134,3526
416,21.6534,3554
417,21.6934,3596
418,21.7335,3563
419,21.7735,3652
420,21.8135,3565
421,21.8536,3540
422,21.8936,3554
423,21.9336,3671
424,21.9737,3590
425,22.0137,3630
426,22.0537,3517
427,22.0937,3556
428,22.1338,3752
429,22.1738,3625
430,22.2138,3681
431,22.2539,3620
432,22.2939,3679
433,22.3339,3562
434,22.374,3574
435,22.414,3556
436,22.454,3554
437,22.4941,3627
438,22.5341,3617
439,22.5741,3468
440,22.6142,3505
441,22.6542,3443
442,22.6942,3444
443,22.7343,3372
444,22.7743,3386
445,22.8143,3352
446,22.8544,3342
447,22.8944,3321
448,22.9344,3187
449,22.9745,3261
450,23.0145,3109
451,23.0545,3017
452,23.0946,3105
453,23.1346,3022
454,23.1746,2948
455,23.2147,2949
456,23.2547,2873
457,23.2947,2901
458,23.3347,2904
459,23.3748,2909
460,23.4148,2801
461,23.4548,2761
462,23.4949,2736
463,23.5349,2665
464,23.5749,2594
465,23.615,2529
466,23.655,2547
467,23.695,2597
468,23.7351,2387
469,23.7751,2411
470,23.8151,2498
471,23.8552,2456
472,23.8952,2331
473,23.9352,2366
474,23.9753,2281
475,24.0153,2238
476,24.0553,2214
477,24.0954,2237
478,24.1354,2133
479,24.1754,2261
480,24.2155,2242
481,24.2555,2217
482,24.2955,2210
483,24.3356,2272
484,24.3756,2330
485,24.4156,2451
486,24.4556,2471
487,24.4957,2430
488,24.5357,2335
489,24.5757,2125
490,24.6158,2029
491,24.6558,2005
492,24.6958,1949
493,24.7359,1927
494,24.7759,1841
495,24.8159,1807
496,24.856,1871
497,24.896,1798
498,24.936,1764
499,24.9761,1709
500,25.0161,1840
501,25.0561,1786
502,25.0962,1710
503,25.1362,1769
504,25.1762,1752
505,25.2163,1747
506,25.2563,1666
507,25.2963,1739
508,25.3364,1693
509,25.3764,1679
510,25.4164,1640
511,25.4565,1710
512,25.4965,1640
513,25.5365,1662
514,25.5766,1610
515,25.6166,1604
516,25.6566,1587
517,25.6966,1678
518,25.7367,1691
519,25.7767,1620
520,25.8167,1600
521,25.8568,1567
522,25.8968,1646
523,25.9368,1591
524,25.9769,1571
525,26.0169,1607
526,26.0569,1556
527,26.097,1561
528,26.137,1621
529,26.177,1519
530,26.2171,1514
531,26.2571,1552
532,26.2971,1652
533,26.3372,1523
534,26.3772,1593
535,26.4172,1519
536,26.4573,1531
537,26.4973,1580
538,26.5373,1522
539,26.5774,1532
540,26.6174,1505
541,26.6574,1666
542,26.6975,1566
543,26.7375,1556
544,26.7775,1472
545,26.8175,1494
546,26.8576,1425
547,26.8976,1562
548,26.9376,1508
549,26.9777,1508
550,27.0177,1553
551,27.0577,1462
552,27.0978,1451
553,27.1378,1502
554,27.1778,1425
555,27.2179,1532
556,27.2579,1438
557,27.2979,1434
558,27.338,1471
559,27.378,1385
560,27.418,1399
561,27.4581,1489
562,27.4981,1499
563,27.5381,1471
564,27.5782,1512
565,27.6182,1487
566,27.6582,1448
567,27.6983,1386
568,27.7383,1387
569,27.7783,1435
570,27.8184,1377
571,27.8584,1419
572,27.8984,1440
573,27.9385,1531
574,27.9785,1399
575,28.0185,1381
576,28.0585,1422
577,28.0986,1388
578,28.1386,1413
579,28.1786,1384
580,28.2187,1377
581,28.2587,1383
582,28.2987,1371
583,28.3388,1365
584,28.3788,1365
585,28.4188,1396
586,28.4589,1444
587,28.4989,1390
588,28.5389,1432
589,28.579,1462
590,28.619,1386
591,28.659,1442
592,28.6991,1340
593,28.7391,1448
594,28.7791,1384
595,28.8192,1427
596,28.8592,1374
597,28.8992,1412
598,28.9393,1398
599,28.9793,1383
600,29.0193,1338
601,29.0594,1449
602,29.0994,1428
603,29.1394,1364
604,29.1794,1463
605,29.2195,1362
606,29.2595,1415
607,29.2995,1382
608,29.3396,1398
609,29.3796,1407
610,29.4196,1443
611,29.4597,1423
612,29.4997,1342
613,29.5397,1417
614,29.5798,1452
615,29.6198,1431
616,29.6598,1388
617,29.6999,1402
618,29.7399,1397
619,29.7799,1419
620,29.82,1484
621,29.86,1420
622,29.9,1507
623,29.9401,1506
624,29.9801,1541
625,30.0201,1531
626,30.0602,1590
627,30.1002,1581
628,30.1402,1571
629,30.1803,1549
630,30.2203,1539
631,30.2603,1505
632,30.3004,1480
633,30.3404,1371
634,30.3804,1349
635,30.4204,1280
636,30.4605,1396
637,30.5005,1362
638,30.5405,1332
639,30.5806,1273
640,30.6206,1331
641,30.6606,1267
642,30.7007,1384
643,30.7407,1426
644,30.7807,1389
645,30.8208,1404
646,30.8608,1273
647,30.9008,1336
648,30.9409,1349
649,30.9809,1315
650,31.0209,1300
651,31.061,1258
652,31.101,1304
653,31.141,1257
654,31.1811,1304
655,31.2211,1296
656,31.2611,1379
657,31.3012,1287
658,31.3412,1293
659,31.3812,1358
660,31.4213,1293
661,31.4613,1285
662,31.5013,1299
663,31.5413,1292
664,31.5814,1275
665,31.6214,1366
666,31.6614,1274
667,31.7015,1220
668,31.7415,1215
669,31.7815,1315
670,31.8216,1235
671,31.8616,1252
672,31.9016,1239
673,31.9417,1208
674,31.9817,1275
675,32.0217,1244
676,32.0618,1264
677,32.1018,1176
678,32.1418,1224
679,32.1819,1249
680,32.2219,1206
681,32.2619,1264
682,32.302,1231
683,32.342,1167
684,32.382,1245
685,32.4221,1235
686,32.4621,1230
687,32.5021,1159
688,32.5422,1200
689,32.5822,1259
690,32.6222,1213
691,32.6623,1214
692,32.7023,1227
693,32.7423,1217
694,32.7823,1226
695,32.8224,1166
696,32.8624,1156
697,32.9024,1223
698,32.9425,1257
699,32.9825,1183
700,33.0225,1191
701,33.0626,1236
702,33.1026,1194
703,33.1426,1230
704,33.1827,1243
705,33.2227,1164
706,33.2627,1228
707,33.3028,1120
708,33.3428,1190
709,33.3828,1240
710,33.4229,1189
711,33.4629,1159
712,33.5029,1190
713,33.543,1163
714,33.583,1217
715,33.623,1169
716,33.6631,1209
717,33.7031,1234
718,33.7431,1178
719,33.7832,1161
720,33.8232,1178
721,33.8632,1189
722,33.9032,1217
723,33.9433,1236
724,33.9833,1186
725,34.0233,1188
726,34.0634,1196
727,34.1034,1163
728,34.1434,1158
729,34.1835,1180
730,34.2235,1124
731,34.2635,1213
732,34.3036,1213
733,34.3436,1176
734,34.3836,1194
735,34.4237,1221
736,34.4637,1211
737,34.5037,1160
738,34.5438,1207
739,34.5838,1146
740,34.6238,1252
741,34.6639,1193
742,34.7039,1171
743,34.7439,1178
744,34.784,1166
745,34.824,1196
746,34.864,1172
747,34.9041,1171
748,34.9441,1122
749,34.9841,1195
750,35.0241,1095
751,35.0642,1168
752,35.1042,1186
753,35.1442,1140
754,35.1843,1141
755,35.2243,1116
756,35.2643,1210
757,35.3044,1175
758,35.3444,1145
759,35.3844,1164
760,35.4245,1082
761,35.4645,1159
762,35.5045,1293
763,35.5446,1158
764,35.5846,1149
765,35.6246,1075
766,35.6647,1126
767,35.7047,1088
768,35.7447,1146
769,35.7848,1141
770,35.8248,1130
771,35.8648,1103
772,35.9049,1131
773,35.9449,1152
774,35.9849,1152
775,36.025,1120
776,36.065,1063
777,36.105,1116
778,36.1451,1134
779,36.1851,1125
780,36.2251,1083
781,36.2651,1132
782,36.3052,1146
783,36.3452,1122
784,36.3852,1072
785,36.4253,1036
786,36.4653,1102
787,36.5053,1020
788,36.5454,1086
789,36.5854,1112
790,36.6254,1120
791,36.6655,1085
792,36.7055,1051
793,36.7455,1058
794,36.7856,1093
795,36.8256,1076
796,36.8656,1046
797,36.9057,1116
798,36.9457,1092
799,36.9857,1026
800,37.0258,1059
801,37.0658,1046
802,37.1058,1063
803,37.1459,1043
804,37.1859,1047
805,37.2259,1020
806,37.266,1016
807,37.306,1026
808,37.346,1105
809,37.386,1072
810,37.4261,1014
811,37.4661,1063
812,37.5061,1072
813,37.5462,1066
814,37.5862,1076
815,37.6262,1076
816,37.6663,1097
817,37.7063,1055
818,37.7463,1006
819,37.7864,1061
820,37.8264,1020
821,37.8664,1012
822,37.9065,1005
823,37.9465,1043
824,37.9865,1058
825,38.0266,1111
826,38.0666,1102
827,38.1066,1113
828,38.1467,1119
829,38.1867,1085
830,38.2267,1146
831,38.2668,1127
832,38.3068,1102
833,38.3468,1113
834,38.3869,1130
835,38.4269,1054
836,38.4669,1078
837,38.507,966
838,38.547,1042
839,38.587,953
840,38.627,982
841,38.6671,1081
842,38.7071,981
843,38.7471,998
844,38.7872,1033
845,38.8272,996
846,38.8672,1051
847,38.9073,991
848,38.9473,1000
849,38.9873,998
850,39.0274,983
851,39.0674,1050
852,39.1074,1011
853,39.1475,1000
854,39.1875,1013
855,39.2275,1071
856,39.2676,988
857,39.3076,1024
858,39.3476,971
859,39.3877,989
860,39.4277,1037
861,39.4677,1012
862,39.5078,989
863,39.5478,1033
864,39.5878,960
865,39.6279,953
866,39.6679,1021
867,39.7079,1038
868,39.7479,1002
869,39.788,1018
870,39.828,1045
871,39.868,1007
872,39.9081,1010
873,39.9481,987
874,39.9881,1034
875,40.0282,1007
876,40.0682,1040
877,40.1082,983
878,40.1483,973
879,40.1883,979
880,40.2283,972
881,40.2684,1030
882,40.3084,961
883,40.3484,938
884,40.3885,1002
885,40.4285,973
886,40.4685,931
887,40.5086,989
888,40.5486,992
889,40.5886,999
890,40.6287,972
891,40.6687,878
892,40.7087,973
893,40.7488,972
894,40.7888,992
895,40.8288,965
896,40.8689,978
897,40.9089,966
898,40.9489,968
899,40.9889,1009
900,41.029,975
901,41.069,973
902,41.109,1015
903,41.1491,947
904,41.1891,961
905,41.2291,977
906,41.2692,994
907,41.3092,1021
908,41.3492,975
909,41.3893,877
910,41.4293,948
911,41.4693,913
912,41.5094,1007
913,41.5494,923
914,41.5894,934
915,41.6295,941
916,41.6695,950
917,41.7095,963
918,41.7496,912
919,41.7896,912
920,41.8296,991
921,41.8697,978
922,41.9097,980
923,41.9497,940
924,41.9898,875
925,42.0298,941
926,42.0698,891
927,42.1098,972
928,42.1499,971
929,42.1899,890
930,42.2299,956
931,42.27,927
932,42.31,887
933,42.35,919
934,42.3901,931
935,42.4301,907
936,42.4701,975
937,42.5102,937
938,42.5502,912
939,42.5902,908
940,42.6303,891
941,42.6703,912
942,42.7103,958
943,42.7504,894
944,42.7904,858
945,42.8304,931
946,42.8705,884
947,42.9105,862
948,42.9505,949
949,42.9906,905
950,43.0306,939
951,43.0706,909
952,43.1107,902
953,43.1507,889
954,43.1907,898
955,43.2308,918
956,43.2708,870
957,43.3108,915
958,43.3508,880
959,43.3909,937
960,43.4309,935
961,43.4709,954
962,43.511,912
963,43.551,954
964,43.591,894
965,43.6311,962
966,43.6711,907
967,43.7111,874
968,43.7512,922
969,43.7912,917
970,43.8312,914
971,43.8713,873
972,43.9113,967
973,43.9513,886
974,43.9914,855
975,44.0314,903
976,44.0714,857
977,44.1115,901
978,44.1515,858
979,44.1915,828
980,44.2316,834
981,44.2716,868
982,44.3116,866
983,44.3517,869
984,44.3917,913
985,44.4317,844
986,44.4717,808
987,44.5118,844
988,44.5518,850
989,44.5918,804
990,44.6319,867
991,44.6719,859
992,44.7119,805
993,44.752,798
994,44.792,847
995,44.832,842
996,44.8721,815
997,44.9121,829
998,44.9521,872
999,44.9922,901
1000,45.0322,869
1001,45.0722,843
1002,45.1123,827
1003,45.1523,835
1004,45.1923,829
1005,45.2324,840
1006,45.2724,829
1007,45.3124,842
1008,45.3525,820
1009,45.3925,811
1010,45.4325,827
1011,45.4726,779
1012,45.5126,859
1013,45.5526,777
1014,45.5927,844
1015,45.6327,840
1016,45.6727,858
1017,45.7127,882
1018,45.7528,856
1019,45.7928,848
1020,45.8328,814
1021,45.8729,836
1022,45.9129,824
1023,45.9529,807
1024,45.993,814
1025,46.033,819
1026,46.073,846
1027,46.1131,763
1028,46.1531,770
1029,46.1931,745
1030,46.2332,844
1031,46.2732,779
1032,46.3132,790
1033,46.3533,831
1034,46.3933,789
1035,46.4333,796
1036,46.4734,779
1037,46.5134,811
1038,46.5534,843
1039,46.5935,804
1040,46.6335,767
1041,46.6735,799
1042,46.7136,801
1043,46.7536,793
1044,46.7936,755
1045,46.8336,752
1046,46.8737,766
1047,46.9137,799
1048,46.9537,783
1049,46.9938,773
1050,47.0338,760
1051,47.0738,781
1052,47.1139,773
1053,47.1539,770
1054,47.1939,757
1055,47.234,725
1056,47.274,743
1057,47.314,762
1058,47.3541,733
1059,47.3941,737
1060,47.4341,677
1061,47.4742,710
1062,47.5142,695
1063,47.5542,732
1064,47.5943,729
1065,47.6343,763
1066,47.6743,745
1067,47.7144,732
1068,47.7544,740
1069,47.7944,727
1070,47.8345,699
1071,47.8745,787
1072,47.9145,707
1073,47.9546,720
1074,47.9946,705
1075,48.0346,713
1076,48.0746,693
1077,48.1147,750
1078,48.1547,699
1079,48.1947,684
1080,48.2348,707
1081,48.2748,713
1082,48.3148,671
1083,48.3549,700
1084,48.3949,703
1085,48.4349,673
1086,48.475,696
1087,48.515,677
1088,48.555,691
1089,48.5951,670
1090,48.6351,737
1091,48.6751,696
1092,48.7152,693
1093,48.7552,689
1094,48.7952,698
1095,48.8353,709
1096,48.8753,678
1097,48.9153,713
1098,48.9554,659
1099,48.9954,652
1100,49.0354,655
1101,49.0755,655
1102,49.1155,666
1103,49.1555,707
1104,49.1955,709
1105,49.2356,669
1106,49.2756,631
1107,49.3156,645
1108,49.3557,644
1109,49.3957,652
1110,49.4357,663
1111,49.4758,615
1112,49.5158,635
1113,49.5558,648
1114,49.5959,631
1115,49.6359,650
1116,49.6759,657
1117,49.716,618
1118,49.756,648
1119,49.796,658
1120,49.8361,617
1121,49.8761,634
1122,49.9161,560
1123,49.9562,637
1124,49.9962,640
1125,50.0362,642
1126,50.0763,643
1127,50.1163,688
1128,50.1563,629
1129,50.1964,589
1130,50.2364,620
1131,50.2764,622
1132,50.3165,592
1133,50.3565,629
1134,50.3965,581
1135,50.4365,609
1136,50.4766,605
1137,50.5166,611
1138,50.5566,592
1139,50.5967,596
1140,50.6367,617
1141,50.6767,584
1142,50.7168,592
1143,50.7568,587
1144,50.7968,571
1145,50.8369,546
1146,50.8769,610
1147,50.9169,586
1148,50.957,653
1149,50.997,638
1150,51.037,601
1151,51.0771,629
1152,51.1171,566
1153,51.1571,610
1154,51.1972,593
1155,51.2372,543
1156,51.2772,553
1157,51.3173,579
1158,51.3573,622
1159,51.3973,594
1160,51.4374,574
1161,51.4774,582
1162,51.5174,567
1163,51.5574,566
1164,51.5975,573
1165,51.6375,561
1166,51.6775,569
1167,51.7176,574
1168,51.7576,590
1169,51.7976,615
1170,51.8377,559
1171,51.8777,519
1172,51.9177,526
1173,51.9578,555
1174,51.9978,590
1175,52.0378,549
1176,52.0779,577
1177,52.1179,569
1178,52.1579,542
1179,52.198,565
1180,52.238,544
1181,52.278,573
1182,52.3181,560
1183,52.3581,528
1184,52.3981,536
1185,52.4382,520
1186,52.4782,544
1187,52.5182,535
1188,52.5583,537
1189,52.5983,571
1190,52.6383,588
1191,52.6784,504
1192,52.7184,574
1193,52.7584,542
1194,52.7984,556
1195,52.8385,545
1196,52.8785,527
1197,52.9185,532
1198,52.9586,550
1199,52.9986,520
1200,53.0386,531
1201,53.0787,517
1202,53.1187,554
1203,53.1587,556
1204,53.1988,528
1205,53.2388,508
1206,53.2788,530
1207,53.3189,532
1208,53.3589,504
1209,53.3989,503
1210,53.439,495
1211,53.479,514
1212,53.519,536
1213,53.5591,513
1214,53.5991,494
1215,53.6391,515
1216,53.6792,486
1217,53.7192,514
1218,53.7592,591
1219,53.7993,499
1220,53.8393,524
1221,53.8793,565
1222,53.9193,523
1223,53.9594,511
1224,53.9994,511
1225,54.0394,487
1226,54.0795,496
1227,54.1195,471
1228,54.1595,506
1229,54.1996,488
1230,54.2396,483
1231,54.2796,487
1232,54.3197,483
1233,54.3597,505
1234,54.3997,530
1235,54.4398,521
1236,54.4798,489
1237,54.5198,480
1238,54.5599,491
1239,54.5999,500
1240,54.6399,493
1241,54.68,485
1242,54.72,477
1243,54.76,508
1244,54.8001,446
1245,54.8401,501
1246,54.8801,486
1247,54.9202,478
1248,54.9602,484
1249,55.0002,473
1250,55.0402,496
1251,55.0803,518
1252,55.1203,472
1253,55.1603,459
1254,55.2004,457
1255,55.2404,485
1256,55.2804,492
1257,55.3205,485
1258,55.3605,509
1259,55.4005,494
1260,55.4406,468
1261,55.4806,489
1262,55.5206,451
1263,55.5607,470
1264,55.6007,466
1265,55.6407,476
1266,55.6808,432
1267,55.7208,449
1268,55.7608,482
1269,55.8009,525
1270,55.8409,473
1271,55.8809,463
1272,55.921,472
1273,55.961,479
1274,56.001,488
1275,56.0411,487
1276,56.0811,486
1277,56.1211,471
1278,56.1612,468
1279,56.2012,470
1280,56.2412,482
1281,56.2812,501
1282,56.3213,472
1283,56.3613,437
1284,56.4013,487
1285,56.4414,511
1286,56.4814,455
1287,56.5214,482
1288,56.5615,479
1289,56.6015,457
1290,56.6415,460
1291,56.6816,464
1292,56.7216,468
1293,56.7616,500
1294,56.8017,433
1295,56.8417,432
1296,56.8817,443
1297,56.9218,492
1298,56.9618,490
1299,57.0018,400
1300,57.0419,488
1301,57.0819,488
1302,57.1219,455
1303,57.162,428
1304,57.202,455
1305,57.242,464
1306,57.2821,419
1307,57.3221,406
1308,57.3621,442
1309,57.4021,487
1310,57.4422,453
1311,57.4822,456
1312,57.5222,469
1313,57.5623,460
1314,57.6023,447
1315,57.6423,477
1316,57.6824,420
1317,57.7224,463
1318,57.7624,455
1319,57.8025,464
1320,57.8425,437
1321,57.8825,463
1322,57.9226,455
1323,57.9626,459
1324,58.0026,417
1325,58.0427,452
1326,58.0827,444
1327,58.1227,431
1328,58.1628,444
1329,58.2028,472
1330,58.2428,456
1331,58.2829,486
1332,58.3229,451
1333,58.3629,474
1334,58.403,460
1335,58.443,473
1336,58.483,438
1337,58.5231,451
1338,58.5631,478
1339,58.6031,428
1340,58.6431,460
1341,58.6832,456
1342,58.7232,445
1343,58.7632,432
1344,58.8033,436
1345,58.8433,456
1346,58.8833,471
1347,58.9234,458
1348,58.9634,439
1349,59.0034,450
1350,59.0435,448
1351,59.0835,450
1352,59.1235,441
1353,59.1636,424
1354,59.2036,455
1355,59.2436,433
1356,59.2837,468
1357,59.3237,431
1358,59.3637,421
1359,59.4038,416
1360,59.4438,435
1361,59.4838,420
1362,59.5239,447
1363,59.5639,424
1364,59.6039,439
1365,59.644,437
1366,59.684,435
1367,59.724,449
1368,59.764,396
1369,59.8041,432
1370,59.8441,400
1371,59.8841,421
1372,59.9242,404
1373,59.9642,434
1374,60.0042,408
1375,60.0443,440
1376,60.0843,415
1377,60.1243,421
1378,60.1644,406
1379,60.2044,413
1380,60.2444,420
1381,60.2845,411
1382,60.3245,417
1383,60.3645,432
1384,60.4046,420
1385,60.4446,430
1386,60.4846,414
1387,60.5247,419
1388,60.5647,415
1389,60.6047,408
1390,60.6448,438
1391,60.6848,424
1392,60.7248,439
1393,60.7649,427
1394,60.8049,365
1395,60.8449,424
1396,60.885,417
1397,60.925,395
1398,60.965,423
1399,61.005,416
1400,61.0451,458
1401,61.0851,404
1402,61.1251,409
1403,61.1652,393
1404,61.2052,415
1405,61.2452,399
1406,61.2853,428
1407,61.3253,360
1408,61.3653,391
1409,61.4054,392
1410,61.4454,382
1411,61.4854,396
1412,61.5255,385
1413,61.5655,440
1414,61.6055,405
1415,61.6456,403
1416,61.6856,410
1417,61.7256,418
1418,61.7657,405
1419,61.8057,370
1420,61.8457,383
1421,61.8858,424
1422,61.9258,412
1423,61.9658,399
1424,62.0059,370
1425,62.0459,400
1426,62.0859,412
1427,62.1259,389
1428,62.166,399
1429,62.206,408
1430,62.246,386
1431,62.2861,401
1432,62.3261,401
1433,62.3661,400
1434,62.4062,428
1435,62.4462,372
1436,62.4862,395
1437,62.5263,402
1438,62.5663,379
1439,62.6063,445
1440,62.6464,382
1441,62.6864,402
1442,62.7264,404
1443,62.7665,411
1444,62.8065,403
1445,62.8465,418
1446,62.8866,386
1447,62.9266,429
1448,62.9666,389
1449,63.0067,421
1450,63.0467,370
1451,63.0867,430
1452,63.1268,419
1453,63.1668,392
1454,63.2068,430
1455,63.2469,392
1456,63.2869,392
1457,63.3269,387
1458,63.3669,398
1459,63.407,360
1460,63.447,396
1461,63.487,402
1462,63.5271,401
1463,63.5671,379
1464,63.6071,395
1465,63.6472,395
1466,63.6872,371
1467,63.7272,372
1468,63.7673,394
1469,63.8073,373
1470,63.8473,390
1471,63.8874,355
1472,63.9274,448
1473,63.9674,385
1474,64.0075,377
1475,64.0475,386
1476,64.0875,387
1477,64.1276,382
1478,64.1676,398
1479,64.2076,415
1480,64.2477,399
1481,64.2877,379
1482,64.3277,381
1483,64.3678,371
1484,64.4078,377
1485,64.4478,397
1486,64.4878,364
1487,64.5279,396
1488,64.5679,348
1489,64.6079,380
1490,64.648,373
1491,64.688,390
1492,64.728,393
1493,64.7681,384
1494,64.8081,355
1495,64.8481,365
1496,64.8882,361
1497,64.9282,382
1498,64.9682,394
1499,65.0083,375
1500,65.0483,376
1501,65.0883,398
1502,65.1284,358
1503,65.1684,354
1504,65.2084,348
1505,65.2485,370
1506,65.2885,368
1507,65.3285,390
1508,65.3686,410
1509,65.4086,374
1510,65.4486,398
1511,65.4887,367
1512,65.5287,401
1513,65.5687,366
1514,65.6088,396
1515,65.6488,376
1516,65.6888,377
1517,65.7288,343
1518,65.7689,393
1519,65.8089,361
1520,65.8489,394
1521,65.889,374
1522,65.929,379
1523,65.969,387
1524,66.0091,350
1525,66.0491,366
1526,66.0891,387
1527,66.1292,370
1528,66.1692,395
1529,66.2092,361
1530,66.2493,373
1531,66.2893,345
1532,66.3293,374
1533,66.3694,343
1534,66.4094,342
1535,66.4494,368
1536,66.4895,353
1537,66.5295,375
1538,66.5695,410
1539,66.6096,342
1540,66.6496,367
1541,66.6896,358
1542,66.7297,355
1543,66.7697,361
1544,66.8097,386
1545,66.8497,348
1546,66.8898,377
1547,66.9298,371
1548,66.9698,347
1549,67.0099,348
1550,67.0499,341
1551,67.0899,383
1552,67.13,395
1553,67.17,365
1554,67.21,392
1555,67.2501,386
1556,67.2901,380
1557,67.3301,357
1558,67.3702,361
1559,67.4102,373
1560,67.4502,372
1561,67.4903,348
1562,67.5303,334
1563,67.5703,342
1564,67.6104,351
1565,67.6504,359
1566,67.6904,373
1567,67.7305,343
1568,67.7705,353
1569,67.8105,365
1570,67.8506,410
1571,67.8906,312
1572,67.9306,372
1573,67.9707,394
1574,68.0107,335
1575,68.0507,357
1576,68.0907,353
1577,68.1308,368
1578,68.1708,356
1579,68.2108,335
1580,68.2509,379
1581,68.2909,365
1582,68.3309,338
1583,68.371,361
1584,68.411,384
1585,68.451,343
1586,68.4911,378
1587,68.5311,394
1588,68.5711,368
1589,68.6112,340
1590,68.6512,385
1591,68.6912,374
1592,68.7313,391
1593,68.7713,369
1594,68.8113,363
1595,68.8514,356
1596,68.8914,371
1597,68.9314,378
1598,68.9715,347
1599,69.0115,359
1600,69.0515,347
1601,69.0916,353
1602,69.1316,343
1603,69.1716,369
1604,69.2116,365
1605,69.2517,370
1606,69.2917,376
1607,69.3317,384
1608,69.3718,356
1609,69.4118,360
1610,69.4518,345
1611,69.4919,362
1612,69.5319,369
1613,69.5719,357
1614,69.612,361
1615,69.652,324
1616,69.692,338
1617,69.7321,355
1618,69.7721,336
1619,69.8121,338
1620,69.8522,345
1621,69.8922,360
1622,69.9322,373
1623,69.9723,357
1624,70.0123,369
