Batch,scan002
Instrument ID,084303
Data Mode,%T
Sample,Sample001
Cycle,Cycle01
Date Collected,10/10/2025
Time Collected,08:05:46
Entries,Data Points
nm,%T
390.0,XXX.XXX
391.0,XXX.XXX
392.0,XXX.XXX
393.0,XXX.XXX
394.0,48.711
395.0,49.464
396.0,48.473
397.0,47.441
398.0,48.560
399.0,51.194
400.0,51.831
401.0,51.062
402.0,51.605
403.0,52.220
404.0,53.318
405.0,55.549
406.0,55.518
407.0,54.585
408.0,56.420
409.0,58.346
410.0,58.388
411.0,58.104
412.0,57.590
413.0,57.139
414.0,58.233
415.0,60.269
416.0,60.729
417.0,59.637
418.0,59.027
419.0,59.196
420.0,59.565
421.0,60.279
422.0,61.946
423.0,63.227
424.0,63.597
425.0,64.930
426.0,65.688
427.0,64.651
428.0,64.225
429.0,65.147
430.0,66.457
431.0,67.519
432.0,67.550
433.0,67.235
434.0,68.201
435.0,68.747
436.0,68.275
437.0,69.073
438.0,69.737
439.0,69.287
440.0,69.576
441.0,69.796
442.0,69.419
443.0,69.991
444.0,70.365
445.0,70.159
446.0,70.934
447.0,71.214
448.0,70.968
449.0,71.854
450.0,72.626
451.0,72.209
452.0,70.941
453.0,70.505
454.0,72.397
455.0,74.258
456.0,74.084
457.0,73.639
458.0,73.846
459.0,74.095
460.0,74.468
461.0,74.472
462.0,74.104
463.0,74.876
464.0,76.300
465.0,76.747
466.0,76.528
467.0,76.084
468.0,75.730
469.0,76.099
470.0,76.342
471.0,75.881
472.0,76.200
473.0,77.476
474.0,77.904
475.0,77.476
476.0,77.663
477.0,78.589
478.0,79.494
479.0,79.601
480.0,78.859
481.0,78.509
482.0,78.900
483.0,79.108
484.0,79.171
485.0,79.541
486.0,79.905
487.0,80.465
488.0,81.228
489.0,81.341
490.0,80.967
491.0,80.852
492.0,80.999
493.0,80.846
494.0,80.677
495.0,81.026
496.0,81.302
497.0,81.617
498.0,82.398
499.0,82.746
500.0,82.148
501.0,81.729
502.0,82.411
503.0,83.331
504.0,83.175
505.0,82.475
506.0,82.801
507.0,83.485
508.0,83.485
509.0,83.777
510.0,84.288
511.0,84.237
512.0,84.278
513.0,84.685
514.0,84.765
515.0,84.354
516.0,84.250
517.0,85.061
518.0,85.562
519.0,84.894
520.0,84.426
521.0,84.769
522.0,85.195
523.0,85.193
524.0,84.996
525.0,85.216
526.0,85.558
527.0,85.613
528.0,85.641
529.0,86.100
530.0,86.938
531.0,86.947
532.0,86.179
533.0,86.024
534.0,86.141
535.0,86.248
536.0,87.031
537.0,87.762
538.0,87.723
539.0,87.679
540.0,87.877
541.0,87.715
542.0,87.308
543.0,87.038
544.0,86.938
545.0,87.425
546.0,88.400
547.0,88.689
548.0,88.114
549.0,87.666
550.0,87.841
551.0,88.344
552.0,88.457
553.0,88.155
554.0,88.007
555.0,88.144
556.0,88.309
557.0,88.141
558.0,88.168
559.0,88.631
560.0,88.522
561.0,88.084
562.0,88.216
563.0,88.510
564.0,88.680
565.0,88.777
566.0,88.442
567.0,88.108
568.0,88.404
569.0,88.915
570.0,89.528
571.0,90.077
572.0,89.773
573.0,89.154
574.0,89.356
575.0,89.939
576.0,90.028
577.0,89.803
578.0,89.705
579.0,89.819
580.0,89.967
581.0,89.911
582.0,89.790
583.0,89.823
584.0,89.884
585.0,89.916
586.0,90.014
587.0,90.120
588.0,90.218
589.0,90.385
590.0,90.500
591.0,90.437
592.0,90.349
593.0,90.411
594.0,90.547
595.0,90.672
596.0,90.730
597.0,90.679
598.0,90.711
599.0,90.906
600.0,90.963
601.0,90.807
602.0,90.792
603.0,90.940
604.0,90.964
605.0,90.917
606.0,90.969
607.0,91.124
608.0,91.300
609.0,91.280
610.0,91.073
611.0,91.091
612.0,91.322
613.0,91.360
614.0,91.260
615.0,91.206
616.0,91.170
617.0,91.207
618.0,91.356
619.0,91.493
620.0,91.432
621.0,91.333
622.0,91.421
623.0,91.437
624.0,91.416
625.0,91.526
626.0,91.583
627.0,91.650
628.0,91.664
629.0,91.610
630.0,91.744
631.0,91.795
632.0,91.586
633.0,91.480
634.0,91.632
635.0,91.804
636.0,91.842
637.0,91.890
638.0,91.937
639.0,91.873
640.0,91.846
641.0,91.933
642.0,91.963
643.0,91.927
644.0,91.953
645.0,91.815
646.0,91.668
647.0,92.006
648.0,92.325
649.0,92.186
650.0,92.084
651.0,92.103
652.0,92.064
653.0,92.193
654.0,92.347
655.0,92.259
656.0,92.143
657.0,92.108
658.0,92.121
659.0,92.257
660.0,92.453
661.0,92.471
662.0,92.281
663.0,92.205
664.0,92.322
665.0,92.465
666.0,92.654
667.0,92.824
668.0,92.880
669.0,92.833
670.0,92.708
671.0,92.611
672.0,92.601
673.0,92.716
674.0,92.786
675.0,92.721
676.0,92.800
677.0,92.812
678.0,92.572
679.0,92.608
680.0,92.845
681.0,92.736
682.0,92.565
683.0,92.660
684.0,92.732
685.0,92.701
686.0,92.771
687.0,92.947
688.0,93.032
689.0,92.970
690.0,92.954
691.0,93.135
692.0,93.335
693.0,93.244
694.0,92.992
695.0,92.914
696.0,92.933
697.0,92.844
698.0,92.784
699.0,92.999
700.0,93.251
701.0,93.228
702.0,93.080
703.0,93.022
704.0,93.061
705.0,93.061
706.0,93.079
707.0,93.179
708.0,93.129
709.0,93.005
710.0,93.035
711.0,93.134
712.0,93.276
713.0,93.366
714.0,93.245
715.0,93.234
716.0,93.454
717.0,93.547
718.0,93.464
719.0,93.433
720.0,93.460
721.0,93.262
722.0,93.045
723.0,93.167
724.0,93.258
725.0,93.228
726.0,93.354
727.0,93.483
728.0,93.441
729.0,93.230
730.0,93.008
731.0,93.043
732.0,93.363
733.0,93.621
734.0,93.548
735.0,93.444
736.0,93.560
737.0,93.604
738.0,93.507
739.0,93.527
740.0,93.563
741.0,93.508
742.0,93.530
743.0,93.579
744.0,93.516
745.0,93.499
746.0,93.633
747.0,XXX.XXX
748.0,XXX.XXX
749.0,XXX.XXX
750.0,XXX.XXX
