Batch,scan010
Instrument ID,084303
Data Mode,%T
Sample,Sample001
Cycle,Cycle01
Date Collected,19/06/2025
Time Collected,04:51:47
Entries,Data Points
nm,%T
390.0,XXX.XXX
391.0,XXX.XXX
392.0,XXX.XXX
393.0,XXX.XXX
394.0,100.178
395.0,103.828
396.0,102.864
397.0,99.960
398.0,99.700
399.0,102.797
400.0,105.041
401.0,102.967
402.0,99.048
403.0,96.031
404.0,94.396
405.0,95.172
406.0,97.540
407.0,100.846
408.0,103.747
409.0,101.506
410.0,97.218
411.0,96.832
412.0,97.751
413.0,99.024
414.0,100.524
415.0,100.384
416.0,100.724
417.0,101.535
418.0,100.952
419.0,99.997
420.0,99.374
421.0,98.193
422.0,97.439
423.0,98.385
424.0,97.513
425.0,96.291
426.0,99.156
427.0,100.959
428.0,100.055
429.0,100.088
430.0,99.891
431.0,98.993
432.0,97.778
433.0,96.107
434.0,95.999
435.0,98.218
436.0,99.805
437.0,99.206
438.0,97.665
439.0,96.767
440.0,98.514
441.0,100.277
442.0,99.177
443.0,98.767
444.0,98.999
445.0,97.790
446.0,98.508
447.0,99.947
448.0,97.735
449.0,95.812
450.0,96.728
451.0,97.351
452.0,98.150
453.0,98.492
454.0,97.305
455.0,97.402
456.0,98.827
457.0,100.120
458.0,100.687
459.0,99.705
460.0,99.183
461.0,99.958
462.0,99.259
463.0,98.041
464.0,98.578
465.0,99.428
466.0,99.784
467.0,99.866
468.0,99.231
469.0,98.288
470.0,98.270
471.0,99.032
472.0,98.929
473.0,98.607
474.0,99.253
475.0,99.349
476.0,98.920
477.0,99.076
478.0,98.903
479.0,98.553
480.0,98.845
481.0,98.638
482.0,97.790
483.0,97.956
484.0,98.835
485.0,98.859
486.0,98.664
487.0,99.081
488.0,98.970
489.0,98.453
490.0,98.517
491.0,98.580
492.0,98.697
493.0,99.181
494.0,99.467
495.0,99.352
496.0,98.772
497.0,98.595
498.0,99.029
499.0,98.913
500.0,98.637
501.0,98.522
502.0,98.782
503.0,99.631
504.0,99.420
505.0,98.525
506.0,98.712
507.0,99.097
508.0,98.903
509.0,98.611
510.0,98.485
511.0,98.854
512.0,99.570
513.0,99.857
514.0,99.468
515.0,99.043
516.0,98.749
517.0,98.461
518.0,98.894
519.0,99.877
520.0,100.014
521.0,99.097
522.0,98.609
523.0,99.161
524.0,99.661
525.0,99.719
526.0,99.631
527.0,99.336
528.0,99.087
529.0,99.131
530.0,98.908
531.0,98.121
532.0,97.595
533.0,97.736
534.0,97.991
535.0,98.106
536.0,98.369
537.0,98.836
538.0,99.060
539.0,99.007
540.0,99.196
541.0,99.648
542.0,99.678
543.0,99.303
544.0,99.055
545.0,98.682
546.0,98.666
547.0,99.378
548.0,99.841
549.0,99.854
550.0,99.636
551.0,99.296
552.0,99.480
553.0,100.100
554.0,100.162
555.0,99.732
556.0,99.875
557.0,100.693
558.0,101.110
559.0,100.500
560.0,99.577
561.0,99.375
562.0,99.802
563.0,99.958
564.0,99.812
565.0,99.665
566.0,99.503
567.0,99.504
568.0,99.221
569.0,98.771
570.0,99.000
571.0,99.518
572.0,99.889
573.0,99.935
574.0,99.495
575.0,99.611
576.0,100.102
577.0,99.488
578.0,98.804
579.0,99.175
580.0,99.439
581.0,99.268
582.0,99.285
583.0,99.425
584.0,99.597
585.0,99.820
586.0,99.844
587.0,99.808
588.0,99.958
589.0,99.821
590.0,99.497
591.0,99.507
592.0,99.434
593.0,99.359
594.0,99.643
595.0,99.829
596.0,99.781
597.0,99.581
598.0,99.363
599.0,99.425
600.0,99.536
601.0,99.449
602.0,99.487
603.0,99.710
604.0,99.731
605.0,99.552
606.0,99.439
607.0,99.389
608.0,99.548
609.0,99.984
610.0,100.118
611.0,99.802
612.0,99.756
613.0,100.133
614.0,100.182
615.0,99.872
616.0,99.904
617.0,100.158
618.0,100.193
619.0,100.050
620.0,99.953
621.0,99.958
622.0,100.009
623.0,100.113
624.0,100.029
625.0,99.875
626.0,100.020
627.0,100.187
628.0,100.161
629.0,100.220
630.0,100.475
631.0,100.576
632.0,100.319
633.0,100.129
634.0,100.206
635.0,100.180
636.0,100.060
637.0,100.108
638.0,100.104
639.0,99.932
640.0,99.883
641.0,99.908
642.0,99.860
643.0,99.987
644.0,100.218
645.0,100.205
646.0,100.105
647.0,99.986
648.0,99.887
649.0,100.241
650.0,100.600
651.0,100.379
652.0,100.092
653.0,99.990
654.0,99.929
655.0,100.049
656.0,100.239
657.0,100.275
658.0,100.376
659.0,100.569
660.0,100.382
661.0,100.006
662.0,100.146
663.0,100.542
664.0,100.497
665.0,100.182
666.0,100.168
667.0,100.375
668.0,100.401
669.0,100.469
670.0,100.669
671.0,100.554
672.0,100.335
673.0,100.459
674.0,100.722
675.0,100.802
676.0,100.611
677.0,100.333
678.0,100.222
679.0,100.324
680.0,100.544
681.0,100.692
682.0,100.642
683.0,100.506
684.0,100.580
685.0,100.835
686.0,100.784
687.0,100.575
688.0,100.708
689.0,100.823
690.0,100.720
691.0,100.728
692.0,100.766
693.0,100.775
694.0,100.855
695.0,101.057
696.0,101.264
697.0,101.066
698.0,100.624
699.0,100.542
700.0,100.757
701.0,100.971
702.0,101.013
703.0,100.722
704.0,100.475
705.0,100.664
706.0,101.002
707.0,101.090
708.0,100.893
709.0,100.581
710.0,100.413
711.0,100.548
712.0,100.906
713.0,101.117
714.0,100.864
715.0,100.583
716.0,100.650
717.0,100.627
718.0,100.321
719.0,100.356
720.0,100.787
721.0,100.737
722.0,100.469
723.0,100.669
724.0,100.778
725.0,100.556
726.0,100.569
727.0,100.847
728.0,100.657
729.0,100.066
730.0,100.125
731.0,100.541
732.0,100.396
733.0,100.196
734.0,100.425
735.0,100.562
736.0,100.383
737.0,100.320
738.0,100.618
739.0,101.057
740.0,101.213
741.0,101.004
742.0,100.850
743.0,100.711
744.0,100.550
745.0,100.982
746.0,101.612
747.0,XXX.XXX
748.0,XXX.XXX
749.0,XXX.XXX
750.0,XXX.XXX
