Batch,scan004
Instrument ID,084303
Data Mode,%T
Sample,Sample001
Cycle,Cycle01
Date Collected,16/10/2025
Time Collected,05:36:40
Entries,Data Points
nm,%T
390.0,XXX.XXX
391.0,XXX.XXX
392.0,XXX.XXX
393.0,XXX.XXX
394.0,43.558
395.0,44.832
396.0,45.833
397.0,46.445
398.0,45.631
399.0,44.874
400.0,46.521
401.0,48.100
402.0,47.524
403.0,47.798
404.0,49.929
405.0,50.600
406.0,49.966
407.0,50.083
408.0,49.948
409.0,49.355
410.0,49.497
411.0,49.896
412.0,50.102
413.0,51.246
414.0,52.964
415.0,53.638
416.0,54.105
417.0,55.365
418.0,55.965
419.0,54.405
420.0,52.506
421.0,53.627
422.0,55.719
423.0,55.506
424.0,55.441
425.0,56.838
426.0,57.501
427.0,57.439
428.0,57.416
429.0,57.048
430.0,57.478
431.0,58.587
432.0,58.395
433.0,57.816
434.0,58.184
435.0,58.921
436.0,59.548
437.0,60.089
438.0,60.291
439.0,59.753
440.0,59.796
441.0,61.163
442.0,61.625
443.0,60.499
444.0,59.803
445.0,60.255
446.0,61.288
447.0,61.961
448.0,61.526
449.0,61.201
450.0,62.058
451.0,63.012
452.0,63.210
453.0,63.268
454.0,63.723
455.0,64.258
456.0,64.562
457.0,64.914
458.0,65.271
459.0,64.890
460.0,64.361
461.0,65.079
462.0,65.710
463.0,64.990
464.0,65.109
465.0,66.626
466.0,67.205
467.0,66.702
468.0,66.338
469.0,66.009
470.0,65.791
471.0,66.166
472.0,66.962
473.0,67.687
474.0,68.042
475.0,68.059
476.0,68.125
477.0,68.646
478.0,69.113
479.0,69.026
480.0,68.817
481.0,68.637
482.0,68.547
483.0,68.844
484.0,69.266
485.0,69.348
486.0,69.474
487.0,70.411
488.0,71.459
489.0,71.210
490.0,70.454
491.0,70.629
492.0,70.853
493.0,70.534
494.0,70.565
495.0,71.150
496.0,71.618
497.0,71.069
498.0,70.595
499.0,71.681
500.0,72.282
501.0,71.541
502.0,71.642
503.0,72.317
504.0,72.400
505.0,72.554
506.0,72.796
507.0,72.780
508.0,72.885
509.0,73.165
510.0,73.167
511.0,72.882
512.0,72.953
513.0,73.335
514.0,73.479
515.0,73.594
516.0,73.900
517.0,74.012
518.0,73.864
519.0,73.897
520.0,73.974
521.0,73.737
522.0,73.885
523.0,74.570
524.0,74.677
525.0,74.341
526.0,74.599
527.0,75.149
528.0,75.177
529.0,75.018
530.0,75.208
531.0,75.362
532.0,75.120
533.0,74.954
534.0,75.402
535.0,75.742
536.0,75.584
537.0,75.849
538.0,76.035
539.0,75.411
540.0,75.036
541.0,75.161
542.0,75.410
543.0,76.165
544.0,76.625
545.0,75.965
546.0,75.567
547.0,76.026
548.0,76.196
549.0,76.170
550.0,76.422
551.0,76.422
552.0,76.240
553.0,76.181
554.0,76.054
555.0,76.221
556.0,76.717
557.0,76.578
558.0,75.881
559.0,75.777
560.0,76.210
561.0,76.332
562.0,76.293
563.0,76.564
564.0,76.956
565.0,77.164
566.0,76.840
567.0,76.087
568.0,75.890
569.0,76.617
570.0,77.374
571.0,76.899
572.0,75.908
573.0,76.471
574.0,77.598
575.0,77.484
576.0,76.937
577.0,76.722
578.0,76.972
579.0,77.730
580.0,78.315
581.0,78.406
582.0,78.424
583.0,78.650
584.0,78.842
585.0,78.771
586.0,78.873
587.0,79.213
588.0,79.232
589.0,78.963
590.0,78.798
591.0,78.935
592.0,79.032
593.0,78.691
594.0,78.569
595.0,79.127
596.0,79.577
597.0,79.527
598.0,79.316
599.0,79.173
600.0,79.345
601.0,79.660
602.0,79.698
603.0,79.537
604.0,79.535
605.0,79.791
606.0,79.873
607.0,79.687
608.0,79.601
609.0,79.852
610.0,80.058
611.0,79.266
612.0,78.387
613.0,78.900
614.0,79.711
615.0,79.701
616.0,79.230
617.0,78.715
618.0,78.094
619.0,77.818
620.0,78.320
621.0,78.061
622.0,77.163
623.0,77.797
624.0,79.239
625.0,79.516
626.0,79.060
627.0,79.258
628.0,78.032
629.0,74.285
630.0,73.010
631.0,75.135
632.0,76.202
633.0,76.399
634.0,77.377
635.0,78.184
636.0,78.597
637.0,78.443
638.0,77.703
639.0,77.605
640.0,78.562
641.0,79.089
642.0,78.210
643.0,78.340
644.0,79.209
645.0,77.740
646.0,77.017
647.0,78.968
648.0,79.607
649.0,78.904
650.0,79.045
651.0,78.783
652.0,77.856
653.0,78.024
654.0,78.889
655.0,78.881
656.0,78.930
657.0,79.431
658.0,78.504
659.0,77.324
660.0,77.430
661.0,77.684
662.0,77.938
663.0,76.819
664.0,74.474
665.0,74.394
666.0,75.378
667.0,75.640
668.0,77.211
669.0,78.875
670.0,78.587
671.0,78.035
672.0,78.159
673.0,77.993
674.0,77.949
675.0,78.628
676.0,78.703
677.0,78.262
678.0,78.666
679.0,78.687
680.0,77.916
681.0,78.347
682.0,79.587
683.0,79.509
684.0,78.255
685.0,77.962
686.0,78.732
687.0,78.387
688.0,77.479
689.0,77.274
690.0,76.760
691.0,77.146
692.0,79.096
693.0,80.083
694.0,79.999
695.0,79.576
696.0,78.663
697.0,78.364
698.0,78.814
699.0,79.028
700.0,78.553
701.0,78.246
702.0,79.022
703.0,79.424
704.0,78.776
705.0,78.477
706.0,78.755
707.0,78.869
708.0,78.754
709.0,79.164
710.0,79.546
711.0,79.343
712.0,79.983
713.0,78.893
714.0,74.441
715.0,72.223
716.0,71.090
717.0,67.514
718.0,67.529
719.0,70.657
720.0,70.913
721.0,71.168
722.0,71.661
723.0,69.267
724.0,68.954
725.0,72.628
726.0,75.674
727.0,77.703
728.0,79.412
729.0,79.974
730.0,79.828
731.0,79.522
732.0,79.439
733.0,79.647
734.0,79.707
735.0,79.657
736.0,79.692
737.0,79.718
738.0,79.763
739.0,79.786
740.0,79.636
741.0,79.494
742.0,79.606
743.0,79.693
744.0,79.667
745.0,79.799
746.0,79.824
747.0,XXX.XXX
748.0,XXX.XXX
749.0,XXX.XXX
750.0,XXX.XXX
