Batch,scan004
Instrument ID,084303
Data Mode,%T
Sample,Sample001
Cycle,Cycle01
Date Collected,15/10/2025
Time Collected,07:23:27
Entries,Data Points
nm,%T
390.0,XXX.XXX
391.0,XXX.XXX
392.0,XXX.XXX
393.0,XXX.XXX
394.0,36.630
395.0,37.340
396.0,39.789
397.0,41.706
398.0,40.337
399.0,38.684
400.0,39.108
401.0,39.842
402.0,40.813
403.0,41.448
404.0,41.249
405.0,42.360
406.0,44.042
407.0,43.941
408.0,43.949
409.0,45.452
410.0,45.793
411.0,45.305
412.0,46.862
413.0,48.210
414.0,47.332
415.0,47.763
416.0,49.647
417.0,50.028
418.0,49.902
419.0,50.583
420.0,51.823
421.0,52.353
422.0,51.310
423.0,51.213
424.0,52.943
425.0,53.369
426.0,51.967
427.0,51.598
428.0,52.496
429.0,52.582
430.0,52.287
431.0,52.772
432.0,53.676
433.0,54.508
434.0,54.953
435.0,55.418
436.0,55.874
437.0,56.058
438.0,56.920
439.0,57.727
440.0,56.812
441.0,55.455
442.0,55.661
443.0,57.390
444.0,59.105
445.0,59.105
446.0,57.918
447.0,57.116
448.0,57.178
449.0,58.238
450.0,59.621
451.0,60.216
452.0,59.713
453.0,58.918
454.0,58.795
455.0,59.133
456.0,59.347
457.0,59.508
458.0,60.257
459.0,61.408
460.0,61.952
461.0,62.018
462.0,61.720
463.0,61.116
464.0,61.578
465.0,62.804
466.0,63.097
467.0,62.888
468.0,63.041
469.0,63.031
470.0,62.915
471.0,63.598
472.0,64.574
473.0,64.568
474.0,63.904
475.0,63.837
476.0,64.074
477.0,63.751
478.0,64.030
479.0,65.227
480.0,65.494
481.0,65.013
482.0,65.192
483.0,65.668
484.0,66.156
485.0,66.917
486.0,66.916
487.0,65.867
488.0,65.797
489.0,66.803
490.0,67.075
491.0,67.231
492.0,67.869
493.0,67.970
494.0,67.646
495.0,67.538
496.0,67.700
497.0,68.165
498.0,68.618
499.0,68.514
500.0,68.201
501.0,68.274
502.0,68.521
503.0,68.772
504.0,69.122
505.0,69.355
506.0,69.400
507.0,69.416
508.0,69.282
509.0,69.126
510.0,69.284
511.0,69.326
512.0,69.145
513.0,69.613
514.0,70.344
515.0,70.257
516.0,70.056
517.0,70.530
518.0,70.914
519.0,70.747
520.0,70.547
521.0,70.533
522.0,70.637
523.0,70.893
524.0,71.285
525.0,71.399
526.0,70.943
527.0,70.862
528.0,71.398
529.0,71.455
530.0,71.231
531.0,71.319
532.0,71.538
533.0,71.913
534.0,72.246
535.0,72.237
536.0,72.016
537.0,71.872
538.0,72.022
539.0,72.156
540.0,71.831
541.0,71.548
542.0,71.994
543.0,72.491
544.0,72.381
545.0,72.334
546.0,72.734
547.0,73.078
548.0,73.038
549.0,72.886
550.0,72.878
551.0,73.039
552.0,73.331
553.0,73.427
554.0,73.305
555.0,73.434
556.0,73.656
557.0,73.683
558.0,73.962
559.0,74.223
560.0,73.902
561.0,73.593
562.0,73.530
563.0,73.449
564.0,73.509
565.0,73.684
566.0,74.080
567.0,74.638
568.0,74.735
569.0,74.503
570.0,74.280
571.0,74.033
572.0,74.143
573.0,74.366
574.0,74.535
575.0,75.127
576.0,75.165
577.0,74.407
578.0,74.390
579.0,74.823
580.0,74.562
581.0,74.048
582.0,73.950
583.0,74.215
584.0,74.469
585.0,74.521
586.0,74.529
587.0,74.477
588.0,74.371
589.0,74.370
590.0,74.377
591.0,74.295
592.0,74.229
593.0,74.328
594.0,74.505
595.0,74.592
596.0,74.650
597.0,74.711
598.0,74.750
599.0,74.648
600.0,74.449
601.0,74.520
602.0,74.650
603.0,74.511
604.0,74.524
605.0,74.731
606.0,74.811
607.0,74.988
608.0,75.224
609.0,75.132
610.0,74.829
611.0,74.822
612.0,75.193
613.0,75.315
614.0,74.995
615.0,74.758
616.0,74.802
617.0,75.079
618.0,75.352
619.0,75.309
620.0,75.253
621.0,75.382
622.0,75.392
623.0,75.292
624.0,75.262
625.0,75.299
626.0,75.314
627.0,75.300
628.0,75.385
629.0,75.530
630.0,75.648
631.0,75.731
632.0,75.762
633.0,75.752
634.0,75.616
635.0,75.475
636.0,75.584
637.0,75.665
638.0,75.479
639.0,75.466
640.0,75.778
641.0,75.919
642.0,75.811
643.0,75.772
644.0,75.801
645.0,75.835
646.0,75.951
647.0,76.093
648.0,76.147
649.0,76.064
650.0,75.945
651.0,75.965
652.0,76.059
653.0,76.212
654.0,76.326
655.0,76.140
656.0,76.035
657.0,76.229
658.0,76.321
659.0,76.267
660.0,76.147
661.0,76.202
662.0,76.562
663.0,76.692
664.0,76.391
665.0,76.219
666.0,76.555
667.0,76.816
668.0,76.573
669.0,76.448
670.0,76.677
671.0,76.798
672.0,76.653
673.0,76.429
674.0,76.368
675.0,76.592
676.0,76.871
677.0,76.846
678.0,76.578
679.0,76.549
680.0,76.835
681.0,76.888
682.0,76.721
683.0,76.673
684.0,76.581
685.0,76.583
686.0,76.866
687.0,76.986
688.0,76.754
689.0,76.588
690.0,76.669
691.0,76.715
692.0,76.705
693.0,76.829
694.0,76.895
695.0,76.786
696.0,76.825
697.0,76.969
698.0,76.788
699.0,76.549
700.0,76.801
701.0,77.178
702.0,77.130
703.0,76.841
704.0,76.698
705.0,76.743
706.0,76.814
707.0,76.910
708.0,77.043
709.0,77.110
710.0,77.057
711.0,76.875
712.0,76.763
713.0,76.833
714.0,76.891
715.0,76.945
716.0,77.058
717.0,77.147
718.0,77.233
719.0,77.265
720.0,77.277
721.0,77.357
722.0,77.191
723.0,76.870
724.0,76.951
725.0,77.220
726.0,77.258
727.0,77.141
728.0,77.016
729.0,77.113
730.0,77.330
731.0,77.316
732.0,77.211
733.0,77.154
734.0,77.083
735.0,77.110
736.0,77.169
737.0,77.103
738.0,77.092
739.0,77.126
740.0,76.957
741.0,76.911
742.0,77.142
743.0,77.081
744.0,76.916
745.0,77.164
746.0,77.399
747.0,XXX.XXX
748.0,XXX.XXX
749.0,XXX.XXX
750.0,XXX.XXX
