nm,A
210.0,1.804
210.5,1.755
211.0,1.715
211.5,1.677
212.0,1.635
212.5,1.591
213.0,1.546
213.5,1.503
214.0,1.464
214.5,1.428
215.0,1.394
215.5,1.362
216.0,1.332
216.5,1.304
217.0,1.275
217.5,1.245
218.0,1.216
218.5,1.186
219.0,1.158
219.5,1.132
220.0,1.107
220.5,1.082
221.0,1.057
221.5,1.033
222.0,1.01
222.5,0.987
223.0,0.966
223.5,0.946
224.0,0.926
224.5,0.908
225.0,0.889
225.5,0.872
226.0,0.857
226.5,0.843
227.0,0.83
227.5,0.818
228.0,0.807
228.5,0.797
229.0,0.787
229.5,0.778
230.0,0.768
230.5,0.76
231.0,0.751
231.5,0.743
232.0,0.735
232.5,0.726
233.0,0.718
233.5,0.709
234.0,0.7
234.5,0.693
235.0,0.685
235.5,0.678
236.0,0.671
236.5,0.664
237.0,0.657
237.5,0.651
238.0,0.645
238.5,0.639
239.0,0.634
239.5,0.63
240.0,0.625
240.5,0.621
241.0,0.617
241.5,0.613
242.0,0.609
242.5,0.606
243.0,0.602
243.5,0.599
244.0,0.597
244.5,0.594
245.0,0.592
245.5,0.589
246.0,0.587
246.5,0.585
247.0,0.583
247.5,0.582
248.0,0.581
248.5,0.58
249.0,0.578
249.5,0.576
250.0,0.575
250.5,0.574
251.0,0.573
251.5,0.572
252.0,0.571
252.5,0.571
253.0,0.571
253.5,0.571
254.0,0.571
254.5,0.571
255.0,0.571
255.5,0.572
256.0,0.573
256.5,0.574
257.0,0.575
257.5,0.576
258.0,0.578
258.5,0.58
259.0,0.583
259.5,0.586
260.0,0.589
260.5,0.592
261.0,0.597
261.5,0.602
262.0,0.607
262.5,0.612
263.0,0.617
263.5,0.621
264.0,0.625
264.5,0.629
265.0,0.633
265.5,0.637
266.0,0.64
266.5,0.644
267.0,0.647
267.5,0.651
268.0,0.655
268.5,0.659
269.0,0.664
269.5,0.668
270.0,0.671
270.5,0.674
271.0,0.676
271.5,0.679
272.0,0.683
272.5,0.685
273.0,0.686
273.5,0.686
274.0,0.686
274.5,0.685
275.0,0.684
275.5,0.684
276.0,0.684
276.5,0.684
277.0,0.683
277.5,0.682
278.0,0.682
278.5,0.681
279.0,0.681
279.5,0.68
280.0,0.678
280.5,0.676
281.0,0.673
281.5,0.67
282.0,0.667
282.5,0.665
283.0,0.662
283.5,0.658
284.0,0.655
284.5,0.653
285.0,0.651
285.5,0.648
286.0,0.646
286.5,0.642
287.0,0.638
287.5,0.632
288.0,0.626
288.5,0.621
289.0,0.617
289.5,0.613
290.0,0.609
290.5,0.606
291.0,0.603
291.5,0.6
292.0,0.596
292.5,0.592
293.0,0.588
293.5,0.584
294.0,0.581
294.5,0.579
295.0,0.577
295.5,0.574
296.0,0.571
296.5,0.569
297.0,0.567
297.5,0.565
298.0,0.563
298.5,0.562
299.0,0.56
299.5,0.558
300.0,0.556
300.5,0.555
301.0,0.555
301.5,0.555
302.0,0.555
302.5,0.555
303.0,0.554
303.5,0.554
304.0,0.553
304.5,0.552
305.0,0.551
305.5,0.55
306.0,0.55
306.5,0.551
307.0,0.552
307.5,0.552
308.0,0.552
308.5,0.551
309.0,0.551
309.5,0.552
310.0,0.553
310.5,0.554
311.0,0.554
311.5,0.554
312.0,0.553
312.5,0.553
313.0,0.554
313.5,0.555
314.0,0.557
314.5,0.557
315.0,0.558
315.5,0.558
316.0,0.559
316.5,0.56
317.0,0.559
317.5,0.559
318.0,0.56
318.5,0.562
319.0,0.563
319.5,0.563
320.0,0.563
320.5,0.563
321.0,0.564
321.5,0.565
322.0,0.566
322.5,0.567
323.0,0.566
323.5,0.565
324.0,0.565
324.5,0.564
325.0,0.563
325.5,0.561
326.0,0.558
326.5,0.555
327.0,0.553
327.5,0.552
328.0,0.55
328.5,0.548
329.0,0.544
329.5,0.54
330.0,0.536
330.5,0.534
331.0,0.532
331.5,0.53
332.0,0.528
332.5,0.524
333.0,0.52
333.5,0.516
334.0,0.512
334.5,0.508
335.0,0.503
335.5,0.499
336.0,0.493
336.5,0.488
337.0,0.481
337.5,0.475
338.0,0.47
338.5,0.465
339.0,0.46
339.5,0.455
340.0,0.45
340.5,0.445
341.0,0.44
341.5,0.433
342.0,0.422
342.5,0.411
343.0,0.403
343.5,0.4
344.0,0.4
344.5,0.399
345.0,0.398
345.5,0.395
346.0,0.393
346.5,0.391
347.0,0.388
347.5,0.382
348.0,0.371
348.5,0.356
349.0,0.345
349.5,0.339
350.0,0.34
350.5,0.342
351.0,0.342
351.5,0.337
352.0,0.329
352.5,0.319
353.0,0.311
353.5,0.304
354.0,0.298
354.5,0.292
355.0,0.29
355.5,0.29
356.0,0.289
356.5,0.286
357.0,0.28
357.5,0.274
358.0,0.27
358.5,0.267
359.0,0.264
359.5,0.261
360.0,0.259
360.5,0.258
361.0,0.256
361.5,0.253
362.0,0.249
362.5,0.244
363.0,0.24
363.5,0.237
364.0,0.232
364.5,0.225
365.0,0.218
365.5,0.217
366.0,0.221
366.5,0.229
367.0,0.235
367.5,0.234
368.0,0.228
368.5,0.221
369.0,0.217
369.5,0.216
370.0,0.217
370.5,0.215
371.0,0.211
371.5,0.207
372.0,0.201
372.5,0.196
373.0,0.192
373.5,0.191
374.0,0.188
374.5,0.185
375.0,0.184
375.5,0.188
376.0,0.19
376.5,0.186
377.0,0.178
377.5,0.168
378.0,0.161
378.5,0.161
379.0,0.165
379.5,0.17
380.0,0.171
380.5,0.17
381.0,0.171
381.5,0.175
382.0,0.179
382.5,0.178
383.0,0.171
383.5,0.16
384.0,0.15
384.5,0.145
385.0,0.147
385.5,0.153
386.0,0.157
386.5,0.157
387.0,0.152
387.5,0.147
388.0,0.146
388.5,0.146
389.0,0.144
389.5,0.142
390.0,0.14
390.5,0.142
391.0,0.145
391.5,0.148
392.0,0.149
392.5,0.145
393.0,0.134
393.5,0.123
394.0,0.115
394.5,0.114
395.0,0.116
395.5,0.119
396.0,0.122
396.5,0.125
397.0,0.125
397.5,0.12
398.0,0.111
398.5,0.104
399.0,0.103
399.5,0.107
400.0,0.113
400.5,0.113
401.0,0.105
401.5,0.094
402.0,0.088
402.5,0.091
403.0,0.103
403.5,0.113
404.0,0.114
404.5,0.106
405.0,0.093
405.5,0.08
406.0,0.075
