Batch	scan009
Instrument ID	084303
Data Mode	%T
Sample	Sample001
Cycle	Cycle01
Date Collected	14/02/2025
Time Collected	01:07:33
Entries	Data Points
nm	%T
390.0	XXX.XXX
391.0	XXX.XXX
392.0	XXX.XXX
393.0	XXX.XXX
394.0	31.186
395.0	32.795
396.0	34.787
397.0	34.369
398.0	33.189
399.0	33.786
400.0	35.176
401.0	36.205
402.0	36.980
403.0	37.844
404.0	39.060
405.0	40.285
406.0	41.220
407.0	41.647
408.0	40.748
409.0	40.058
410.0	41.449
411.0	42.606
412.0	42.692
413.0	43.537
414.0	45.015
415.0	45.933
416.0	45.376
417.0	44.337
418.0	45.488
419.0	48.369
420.0	49.473
421.0	48.577
422.0	48.293
423.0	49.464
424.0	50.642
425.0	50.563
426.0	50.049
427.0	49.660
428.0	50.070
429.0	51.886
430.0	53.512
431.0	54.290
432.0	54.385
433.0	53.756
434.0	53.371
435.0	53.596
436.0	54.059
437.0	54.647
438.0	55.507
439.0	55.832
440.0	54.930
441.0	54.506
442.0	56.010
443.0	58.210
444.0	58.869
445.0	57.830
446.0	57.164
447.0	57.585
448.0	57.928
449.0	57.944
450.0	58.474
451.0	59.754
452.0	60.643
453.0	60.306
454.0	60.092
455.0	61.238
456.0	62.679
457.0	63.083
458.0	62.829
459.0	62.867
460.0	63.250
461.0	63.102
462.0	62.488
463.0	62.894
464.0	64.288
465.0	65.478
466.0	66.052
467.0	66.015
468.0	65.843
469.0	65.999
470.0	66.254
471.0	66.603
472.0	67.229
473.0	67.388
474.0	67.212
475.0	67.748
476.0	68.058
477.0	67.687
478.0	68.061
479.0	68.604
480.0	68.172
481.0	68.047
482.0	68.897
483.0	69.864
484.0	70.520
485.0	70.791
486.0	71.213
487.0	71.748
488.0	71.538
489.0	71.446
490.0	72.201
491.0	72.575
492.0	72.337
493.0	72.352
494.0	72.807
495.0	73.395
496.0	73.719
497.0	73.971
498.0	74.183
499.0	73.798
500.0	73.607
501.0	74.506
502.0	75.142
503.0	74.656
504.0	74.310
505.0	74.589
506.0	74.721
507.0	74.982
508.0	75.933
509.0	76.689
510.0	76.513
511.0	76.129
512.0	76.440
513.0	76.866
514.0	76.674
515.0	76.698
516.0	77.095
517.0	77.278
518.0	77.485
519.0	77.593
520.0	77.494
521.0	77.637
522.0	77.959
523.0	78.136
524.0	78.298
525.0	78.682
526.0	79.043
527.0	79.145
528.0	79.324
529.0	79.559
530.0	79.682
531.0	79.981
532.0	80.221
533.0	80.128
534.0	80.034
535.0	80.197
536.0	80.609
537.0	80.929
538.0	81.036
539.0	81.268
540.0	81.525
541.0	81.653
542.0	81.755
543.0	81.587
544.0	81.352
545.0	81.380
546.0	81.412
547.0	81.668
548.0	82.131
549.0	82.122
550.0	82.086
551.0	82.466
552.0	82.630
553.0	82.671
554.0	82.859
555.0	82.964
556.0	83.032
557.0	83.071
558.0	83.190
559.0	83.571
560.0	83.973
561.0	84.102
562.0	84.157
563.0	84.453
564.0	84.663
565.0	84.443
566.0	84.426
567.0	84.817
568.0	84.700
569.0	84.294
570.0	84.297
571.0	84.216
572.0	84.225
573.0	84.892
574.0	85.263
575.0	84.768
576.0	84.836
577.0	85.707
578.0	85.694
579.0	84.935
580.0	84.732
581.0	85.088
582.0	85.311
583.0	85.210
584.0	85.281
585.0	85.526
586.0	85.613
587.0	85.530
588.0	85.395
589.0	85.558
590.0	86.027
591.0	86.312
592.0	86.130
593.0	85.799
594.0	85.954
595.0	86.429
596.0	86.424
597.0	86.042
598.0	86.064
599.0	86.532
600.0	86.897
601.0	86.987
602.0	87.002
603.0	86.930
604.0	86.748
605.0	86.735
606.0	86.980
607.0	87.270
608.0	87.335
609.0	87.219
610.0	87.245
611.0	87.310
612.0	87.385
613.0	87.601
614.0	87.615
615.0	87.518
616.0	87.602
617.0	87.564
618.0	87.574
619.0	87.934
620.0	88.145
621.0	88.001
622.0	87.939
623.0	88.015
624.0	88.031
625.0	88.081
626.0	88.071
627.0	88.034
628.0	88.249
629.0	88.407
630.0	88.393
631.0	88.622
632.0	88.731
633.0	88.389
634.0	88.086
635.0	87.962
636.0	88.123
637.0	88.550
638.0	88.699
639.0	88.615
640.0	88.628
641.0	88.662
642.0	88.649
643.0	88.746
644.0	88.901
645.0	88.782
646.0	88.445
647.0	88.303
648.0	88.603
649.0	89.159
650.0	89.520
651.0	89.451
652.0	89.097
653.0	88.835
654.0	88.839
655.0	88.870
656.0	88.903
657.0	89.155
658.0	89.550
659.0	89.730
660.0	89.451
661.0	89.084
662.0	89.179
663.0	89.319
664.0	89.065
665.0	89.085
666.0	89.499
667.0	89.590
668.0	89.441
669.0	89.501
670.0	89.673
671.0	89.707
672.0	89.747
673.0	89.912
674.0	89.935
675.0	89.819
676.0	89.727
677.0	89.773
678.0	89.951
679.0	89.810
680.0	89.472
681.0	89.493
682.0	89.749
683.0	90.014
684.0	90.132
685.0	90.120
686.0	90.271
687.0	90.291
688.0	90.033
689.0	89.938
690.0	89.845
691.0	89.713
692.0	90.151
693.0	90.666
694.0	90.336
695.0	89.916
696.0	90.179
697.0	90.361
698.0	90.052
699.0	89.831
700.0	89.983
701.0	90.211
702.0	90.179
703.0	90.030
704.0	90.001
705.0	89.961
706.0	89.895
707.0	90.036
708.0	90.445
709.0	90.659
710.0	90.408
711.0	90.164
712.0	90.038
713.0	90.013
714.0	90.268
715.0	90.309
716.0	90.119
717.0	90.240
718.0	90.366
719.0	90.274
720.0	90.492
721.0	90.822
722.0	90.485
723.0	89.963
724.0	90.059
725.0	90.469
726.0	90.634
727.0	90.450
728.0	90.368
729.0	90.652
730.0	90.870
731.0	90.740
732.0	90.541
733.0	90.601
734.0	90.698
735.0	90.515
736.0	90.389
737.0	90.536
738.0	90.663
739.0	90.769
740.0	90.943
741.0	90.821
742.0	90.325
743.0	90.110
744.0	90.423
745.0	90.773
746.0	91.035
747.0	XXX.XXX
748.0	XXX.XXX
749.0	XXX.XXX
750.0	XXX.XXX
