,     Angle,       PSD
0,5.0,2145
1,5.04003,2173
2,5.08006,2166
3,5.1201,2101
4,5.16013,2079
5,5.20016,2094
6,5.24019,2045
7,5.28023,2055
8,5.32026,1998
9,5.36029,2036
10,5.40032,1939
11,5.44035,1926
12,5.48039,1942
13,5.52042,1979
14,5.56045,1875
15,5.60048,1907
16,5.64052,1897
17,5.68055,1835
18,5.72058,1857
19,5.76061,1833
20,5.80064,1849
21,5.84068,1801
22,5.88071,1883
23,5.92074,1881
24,5.96077,1761
25,6.0008,1741
26,6.04084,1812
27,6.08087,1800
28,6.1209,1769
29,6.16093,1723
30,6.20097,1769
31,6.241,1733
32,6.28103,1765
33,6.32106,1768
34,6.36109,1720
35,6.40113,1696
36,6.44116,1668
37,6.48119,1644
38,6.52122,1728
39,6.56126,1663
40,6.60129,1721
41,6.64132,1674
42,6.68135,1582
43,6.72138,1702
44,6.76142,1695
45,6.80145,1726
46,6.84148,1520
47,6.88151,1557
48,6.92155,1638
49,6.96158,1614
50,7.00161,1672
51,7.04164,1605
52,7.08167,1705
53,7.12171,1579
54,7.16174,1554
55,7.20177,1612
56,7.2418,1517
57,7.28184,1580
58,7.32187,1624
59,7.3619,1590
60,7.40193,1580
61,7.44196,1630
62,7.482,1590
63,7.52203,1544
64,7.56206,1512
65,7.60209,1530
66,7.64213,1535
67,7.68216,1555
68,7.72219,1654
69,7.76222,1579
70,7.80225,1511
71,7.84229,1434
72,7.88232,1535
73,7.92235,1522
74,7.96238,1542
75,8.00241,1542
76,8.04245,1529
77,8.08248,1518
78,8.12251,1507
79,8.16254,1590
80,8.20258,1548
81,8.24261,1433
82,8.28264,1516
83,8.32267,1527
84,8.3627,1531
85,8.40274,1528
86,8.44277,1540
87,8.4828,1542
88,8.52283,1518
89,8.56287,1582
90,8.6029,1525
91,8.64293,1567
92,8.68296,1520
93,8.72299,1537
94,8.76303,1543
95,8.80306,1507
96,8.84309,1559
97,8.88312,1501
98,8.92316,1553
99,8.96319,1460
100,9.00322,1554
101,9.04325,1430
102,9.08328,1517
103,9.12332,1566
104,9.16335,1505
105,9.20338,1461
106,9.24341,1479
107,9.28345,1491
108,9.32348,1548
109,9.36351,1497
110,9.40354,1485
111,9.44357,1574
112,9.48361,1503
113,9.52364,1553
114,9.56367,1487
115,9.6037,1535
116,9.64374,1593
117,9.68377,1597
118,9.7238,1518
119,9.76383,1603
120,9.80386,1513
121,9.8439,1557
122,9.88393,1561
123,9.92396,1614
124,9.96399,1507
125,10.004,1588
126,10.0441,1617
127,10.0841,1613
128,10.1241,1575
129,10.1642,1619
130,10.2042,1531
131,10.2442,1616
132,10.2843,1646
133,10.3243,1563
134,10.3643,1591
135,10.4043,1562
136,10.4444,1594
137,10.4844,1526
138,10.5244,1656
139,10.5645,1610
140,10.6045,1657
141,10.6445,1678
142,10.6846,1693
143,10.7246,1708
144,10.7646,1632
145,10.8047,1727
146,10.8447,1652
147,10.8847,1637
148,10.9248,1682
149,10.9648,1634
150,11.0048,1643
151,11.0449,1622
152,11.0849,1649
153,11.1249,1734
154,11.165,1737
155,11.205,1751
156,11.245,1768
157,11.2851,1760
158,11.3251,1760
159,11.3651,1746
160,11.4052,1800
161,11.4452,1845
162,11.4852,1748
163,11.5252,1822
164,11.5653,1785
165,11.6053,1764
166,11.6453,1793
167,11.6854,1880
168,11.7254,1888
169,11.7654,1965
170,11.8055,1914
171,11.8455,1937
172,11.8855,2038
173,11.9256,1934
174,11.9656,1982
175,12.0056,2021
176,12.0457,1956
177,12.0857,1953
178,12.1257,1924
179,12.1658,1870
180,12.2058,1963
181,12.2458,1966
182,12.2859,1999
183,12.3259,1893
184,12.3659,1956
185,12.406,1900
186,12.446,1946
187,12.486,2060
188,12.5261,1944
189,12.5661,1993
190,12.6061,1972
191,12.6462,1962
192,12.6862,2064
193,12.7262,1913
194,12.7662,1952
195,12.8063,2109
196,12.8463,2015
197,12.8863,1996
198,12.9264,1947
199,12.9664,1937
200,13.0064,1957
201,13.0465,2102
202,13.0865,1989
203,13.1265,2028
204,13.1666,2037
205,13.2066,2084
206,13.2466,2114
207,13.2867,2016
208,13.3267,2025
209,13.3667,2101
210,13.4068,1975
211,13.4468,2010
212,13.4868,2068
213,13.5269,2113
214,13.5669,2093
215,13.6069,2148
216,13.647,2079
217,13.687,2100
218,13.727,2107
219,13.7671,2113
220,13.8071,2079
221,13.8471,2091
222,13.8871,2058
223,13.9272,2035
224,13.9672,2061
225,14.0072,2163
226,14.0473,2084
227,14.0873,2179
228,14.1273,2248
229,14.1674,2214
230,14.2074,2103
231,14.2474,2220
232,14.2875,2174
233,14.3275,2186
234,14.3675,2146
235,14.4076,2155
236,14.4476,2144
237,14.4876,2190
238,14.5277,2175
239,14.5677,2272
240,14.6077,2303
241,14.6478,2139
242,14.6878,2213
243,14.7278,2233
244,14.7679,2173
245,14.8079,2336
246,14.8479,2242
247,14.888,2278
248,14.928,2196
249,14.968,2280
250,15.008,2264
251,15.0481,2322
252,15.0881,2246
253,15.1281,2261
254,15.1682,2224
255,15.2082,2304
256,15.2482,2272
257,15.2883,2318
258,15.3283,2380
259,15.3683,2304
260,15.4084,2257
261,15.4484,2414
262,15.4884,2225
263,15.5285,2321
264,15.5685,2383
265,15.6085,2372
266,15.6486,2425
267,15.6886,2383
268,15.7286,2432
269,15.7687,2360
270,15.8087,2511
271,15.8487,2359
272,15.8888,2411
273,15.9288,2361
274,15.9688,2496
275,16.0089,2456
276,16.0489,2436
277,16.0889,2461
278,16.129,2493
279,16.169,2454
280,16.209,2402
281,16.249,2448
282,16.2891,2447
283,16.3291,2444
284,16.3691,2460
285,16.4092,2471
286,16.4492,2417
287,16.4892,2399
288,16.5293,2512
289,16.5693,2490
290,16.6093,2488
291,16.6494,2442
292,16.6894,2431
293,16.7294,2516
294,16.7695,2432
295,16.8095,2546
296,16.8495,2430
297,16.8896,2469
298,16.9296,2446
299,16.9696,2450
300,17.0097,2520
301,17.0497,2448
302,17.0897,2517
303,17.1298,2493
304,17.1698,2441
305,17.2098,2484
306,17.2499,2652
307,17.2899,2451
308,17.3299,2508
309,17.3699,2493
310,17.41,2553
311,17.45,2517
312,17.49,2543
313,17.5301,2532
314,17.5701,2467
315,17.6101,2602
316,17.6502,2528
317,17.6902,2549
318,17.7302,2604
319,17.7703,2640
320,17.8103,2716
321,17.8503,2584
322,17.8904,2563
323,17.9304,2635
324,17.9704,2601
325,18.0105,2593
326,18.0505,2616
327,18.0905,2547
328,18.1306,2666
329,18.1706,2625
330,18.2106,2589
331,18.2507,2695
332,18.2907,2641
333,18.3307,2679
334,18.3708,2711
335,18.4108,2775
336,18.4508,2689
337,18.4909,2676
338,18.5309,2688
339,18.5709,2767
340,18.6109,2749
341,18.651,2856
342,18.691,2760
343,18.731,2749
344,18.7711,2727
345,18.8111,2756
346,18.8511,2819
347,18.8912,2786
348,18.9312,2763
349,18.9712,2836
350,19.0113,2768
351,19.0513,2698
352,19.0913,2825
353,19.1314,2771
354,19.1714,2835
355,19.2114,2698
356,19.2515,2797
357,19.2915,2776
358,19.3315,2822
359,19.3716,2831
360,19.4116,2903
361,19.4516,2749
362,19.4917,2843
363,19.5317,2881
364,19.5717,2918
365,19.6118,2773
366,19.6518,2933
367,19.6918,2986
368,19.7318,2924
369,19.7719,2949
370,19.8119,2914
371,19.8519,2919
372,19.892,3021
373,19.932,2993
374,19.972,2977
375,20.0121,2956
376,20.0521,2938
377,20.0921,2974
378,20.1322,2949
379,20.1722,2961
380,20.2122,2951
381,20.2523,2992
382,20.2923,3037
383,20.3323,2987
384,20.3724,2977
385,20.4124,2913
386,20.4524,2857
387,20.4925,2986
388,20.5325,2912
389,20.5725,2970
390,20.6126,2796
391,20.6526,2926
392,20.6926,2840
393,20.7327,2921
394,20.7727,2958
395,20.8127,2909
396,20.8528,2936
397,20.8928,2918
398,20.9328,2941
399,20.9728,2843
400,21.0129,2815
401,21.0529,2872
402,21.0929,2900
403,21.133,2875
404,21.173,2881
405,21.213,2823
406,21.2531,2743
407,21.2931,2696
408,21.3331,2805
409,21.3732,2800
410,21.4132,2798
411,21.4532,2830
412,21.4933,2683
413,21.5333,2668
414,21.5733,2733
415,21.6134,2811
416,21.6534,2651
417,21.6934,2692
418,21.7335,2683
419,21.7735,2693
420,21.8135,2665
421,21.8536,2578
422,21.8936,2620
423,21.9336,2659
424,21.9737,2520
425,22.0137,2554
426,22.0537,2546
427,22.0937,2532
428,22.1338,2518
429,22.1738,2597
430,22.2138,2506
431,22.2539,2433
432,22.2939,2451
433,22.3339,2526
434,22.374,2436
435,22.414,2523
436,22.454,2354
437,22.4941,2341
438,22.5341,2407
439,22.5741,2315
440,22.6142,2324
441,22.6542,2325
442,22.6942,2334
443,22.7343,2288
444,22.7743,2258
445,22.8143,2299
446,22.8544,2279
447,22.8944,2271
448,22.9344,2127
449,22.9745,2230
450,23.0145,2226
451,23.0545,2141
452,23.0946,2163
453,23.1346,2098
454,23.1746,2118
455,23.2147,2129
456,23.2547,2077
457,23.2947,2071
458,23.3347,2050
459,23.3748,2130
460,23.4148,1991
461,23.4548,2014
462,23.4949,1989
463,23.5349,1937
464,23.5749,1992
465,23.615,2000
466,23.655,2010
467,23.695,1947
468,23.7351,1948
469,23.7751,1912
470,23.8151,1865
471,23.8552,1863
472,23.8952,1933
473,23.9352,1873
474,23.9753,1862
475,24.0153,1768
476,24.0553,1877
477,24.0954,1826
478,24.1354,1810
479,24.1754,1721
480,24.2155,1796
481,24.2555,1744
482,24.2955,1807
483,24.3356,1754
484,24.3756,1818
485,24.4156,1667
486,24.4556,1709
487,24.4957,1646
488,24.5357,1710
489,24.5757,1750
490,24.6158,1686
491,24.6558,1770
492,24.6958,1674
493,24.7359,1683
494,24.7759,1695
495,24.8159,1644
496,24.856,1553
497,24.896,1675
498,24.936,1700
499,24.9761,1636
500,25.0161,1633
501,25.0561,1625
502,25.0962,1606
503,25.1362,1612
504,25.1762,1618
505,25.2163,1541
506,25.2563,1625
507,25.2963,1504
508,25.3364,1627
509,25.3764,1579
510,25.4164,1570
511,25.4565,1551
512,25.4965,1598
513,25.5365,1495
514,25.5766,1521
515,25.6166,1469
516,25.6566,1537
517,25.6966,1444
518,25.7367,1533
519,25.7767,1460
520,25.8167,1406
521,25.8568,1458
522,25.8968,1452
523,25.9368,1506
524,25.9769,1475
525,26.0169,1483
526,26.0569,1435
527,26.097,1521
528,26.137,1428
529,26.177,1440
530,26.2171,1499
531,26.2571,1434
532,26.2971,1412
533,26.3372,1447
534,26.3772,1414
535,26.4172,1504
536,26.4573,1385
537,26.4973,1526
538,26.5373,1376
539,26.5774,1365
540,26.6174,1447
541,26.6574,1424
542,26.6975,1356
543,26.7375,1393
544,26.7775,1437
545,26.8175,1415
546,26.8576,1333
547,26.8976,1346
548,26.9376,1396
549,26.9777,1413
550,27.0177,1381
551,27.0577,1321
552,27.0978,1372
553,27.1378,1354
554,27.1778,1368
555,27.2179,1266
556,27.2579,1394
557,27.2979,1320
558,27.338,1359
559,27.378,1307
560,27.418,1354
561,27.4581,1352
562,27.4981,1287
563,27.5381,1298
564,27.5782,1294
565,27.6182,1327
566,27.6582,1329
567,27.6983,1283
568,27.7383,1266
569,27.7783,1229
570,27.8184,1265
571,27.8584,1302
572,27.8984,1287
573,27.9385,1280
574,27.9785,1301
575,28.0185,1252
576,28.0585,1258
577,28.0986,1301
578,28.1386,1308
579,28.1786,1271
580,28.2187,1203
581,28.2587,1258
582,28.2987,1242
583,28.3388,1310
584,28.3788,1242
585,28.4188,1277
586,28.4589,1275
587,28.4989,1264
588,28.5389,1294
589,28.579,1250
590,28.619,1302
591,28.659,1279
592,28.6991,1235
593,28.7391,1245
594,28.7791,1267
595,28.8192,1249
596,28.8592,1223
597,28.8992,1181
598,28.9393,1221
599,28.9793,1200
600,29.0193,1237
601,29.0594,1284
602,29.0994,1187
603,29.1394,1251
604,29.1794,1189
605,29.2195,1245
606,29.2595,1211
607,29.2995,1177
608,29.3396,1176
609,29.3796,1252
610,29.4196,1231
611,29.4597,1223
612,29.4997,1269
613,29.5397,1178
614,29.5798,1188
615,29.6198,1215
616,29.6598,1228
617,29.6999,1251
618,29.7399,1163
619,29.7799,1199
620,29.82,1161
621,29.86,1164
622,29.9,1201
623,29.9401,1174
624,29.9801,1177
625,30.0201,1167
626,30.0602,1172
627,30.1002,1202
628,30.1402,1174
629,30.1803,1156
630,30.2203,1141
631,30.2603,1110
632,30.3004,1212
633,30.3404,1163
634,30.3804,1150
635,30.4204,1158
636,30.4605,1043
637,30.5005,1145
638,30.5405,1090
639,30.5806,1131
640,30.6206,1117
641,30.6606,1145
642,30.7007,1080
643,30.7407,1216
644,30.7807,1104
645,30.8208,1077
646,30.8608,1133
647,30.9008,1081
648,30.9409,1081
649,30.9809,1124
650,31.0209,1101
651,31.061,1115
652,31.101,1173
653,31.141,1077
654,31.1811,1127
655,31.2211,1131
656,31.2611,1085
657,31.3012,1101
658,31.3412,1107
659,31.3812,1083
660,31.4213,1100
661,31.4613,1092
662,31.5013,1109
663,31.5413,1082
664,31.5814,1075
665,31.6214,1178
666,31.6614,1069
667,31.7015,1083
668,31.7415,1051
669,31.7815,1056
670,31.8216,1059
671,31.8616,1153
672,31.9016,1099
673,31.9417,1030
674,31.9817,1046
675,32.0217,1018
676,32.0618,1092
677,32.1018,1081
678,32.1418,1062
679,32.1819,1067
680,32.2219,1073
681,32.2619,1075
682,32.302,1028
683,32.342,1057
684,32.382,1071
685,32.4221,1057
686,32.4621,1106
687,32.5021,1108
688,32.5422,1066
689,32.5822,1097
690,32.6222,1093
691,32.6623,1070
692,32.7023,996
693,32.7423,1022
694,32.7823,1087
695,32.8224,1156
696,32.8624,1182
697,32.9024,1119
698,32.9425,1058
699,32.9825,1024
700,33.0225,1065
701,33.0626,1018
702,33.1026,1050
703,33.1426,1033
704,33.1827,1094
705,33.2227,1055
706,33.2627,1081
707,33.3028,1114
708,33.3428,1056
709,33.3828,1025
710,33.4229,1086
711,33.4629,1089
712,33.5029,1040
713,33.543,1099
714,33.583,1015
715,33.623,1033
716,33.6631,1120
717,33.7031,1091
718,33.7431,1029
719,33.7832,1062
720,33.8232,1013
721,33.8632,1089
722,33.9032,1083
723,33.9433,1080
724,33.9833,1099
725,34.0233,1078
726,34.0634,1032
727,34.1034,1102
728,34.1434,1094
729,34.1835,1076
730,34.2235,1118
731,34.2635,1103
732,34.3036,1091
733,34.3436,1073
734,34.3836,1109
735,34.4237,1061
736,34.4637,1160
737,34.5037,1071
738,34.5438,1116
739,34.5838,1114
740,34.6238,1070
741,34.6639,1135
742,34.7039,1104
743,34.7439,1077
744,34.784,1083
745,34.824,1057
746,34.864,1082
747,34.9041,1068
748,34.9441,1090
749,34.9841,1047
750,35.0241,1087
751,35.0642,1054
752,35.1042,1100
753,35.1442,1082
754,35.1843,1077
755,35.2243,1093
756,35.2643,1062
757,35.3044,1095
758,35.3444,1105
759,35.3844,1059
760,35.4245,1026
761,35.4645,1065
762,35.5045,1097
763,35.5446,1048
764,35.5846,1126
765,35.6246,1041
766,35.6647,1040
767,35.7047,1072
768,35.7447,1047
769,35.7848,1073
770,35.8248,1086
771,35.8648,1029
772,35.9049,1007
773,35.9449,1010
774,35.9849,1101
775,36.025,1068
776,36.065,1090
777,36.105,996
778,36.1451,1089
779,36.1851,1020
780,36.2251,1037
781,36.2651,986
782,36.3052,1100
783,36.3452,1044
784,36.3852,1089
785,36.4253,994
786,36.4653,993
787,36.5053,1035
788,36.5454,1087
789,36.5854,1071
790,36.6254,1056
791,36.6655,1036
792,36.7055,1069
793,36.7455,1059
794,36.7856,1082
795,36.8256,945
796,36.8656,1030
797,36.9057,1051
798,36.9457,1023
799,36.9857,998
800,37.0258,974
801,37.0658,1115
802,37.1058,1078
803,37.1459,985
804,37.1859,1011
805,37.2259,1045
806,37.266,1048
807,37.306,1015
808,37.346,1054
809,37.386,1048
810,37.4261,1087
811,37.4661,1010
812,37.5061,968
813,37.5462,1024
814,37.5862,988
815,37.6262,1050
816,37.6663,1018
817,37.7063,1055
818,37.7463,1021
819,37.7864,1027
820,37.8264,1047
821,37.8664,1010
822,37.9065,1024
823,37.9465,936
824,37.9865,1002
825,38.0266,1056
826,38.0666,1005
827,38.1066,1031
828,38.1467,1069
829,38.1867,1001
830,38.2267,1038
831,38.2668,1104
832,38.3068,975
833,38.3468,994
834,38.3869,994
835,38.4269,990
836,38.4669,993
837,38.507,1065
838,38.547,997
839,38.587,982
840,38.627,1015
841,38.6671,1008
842,38.7071,1077
843,38.7471,994
844,38.7872,988
845,38.8272,1032
846,38.8672,1000
847,38.9073,1006
848,38.9473,1016
849,38.9873,993
850,39.0274,993
851,39.0674,1019
852,39.1074,965
853,39.1475,1040
854,39.1875,989
855,39.2275,989
856,39.2676,955
857,39.3076,985
858,39.3476,961
859,39.3877,1000
860,39.4277,966
861,39.4677,987
862,39.5078,1025
863,39.5478,993
864,39.5878,992
865,39.6279,983
866,39.6679,943
867,39.7079,975
868,39.7479,1017
869,39.788,970
870,39.828,1018
871,39.868,947
872,39.9081,946
873,39.9481,1029
874,39.9881,965
875,40.0282,1023
876,40.0682,961
877,40.1082,977
878,40.1483,956
879,40.1883,964
880,40.2283,979
881,40.2684,968
882,40.3084,937
883,40.3484,952
884,40.3885,983
885,40.4285,975
886,40.4685,964
887,40.5086,965
888,40.5486,999
889,40.5886,937
890,40.6287,997
891,40.6687,1016
892,40.7087,970
893,40.7488,936
894,40.7888,964
895,40.8288,908
896,40.8689,1008
897,40.9089,941
898,40.9489,991
899,40.9889,966
900,41.029,979
901,41.069,901
902,41.109,900
903,41.1491,948
904,41.1891,941
905,41.2291,992
906,41.2692,956
907,41.3092,923
908,41.3492,948
909,41.3893,919
910,41.4293,938
911,41.4693,941
912,41.5094,976
913,41.5494,966
914,41.5894,981
915,41.6295,912
916,41.6695,917
917,41.7095,934
918,41.7496,962
919,41.7896,960
920,41.8296,932
921,41.8697,904
922,41.9097,926
923,41.9497,917
924,41.9898,906
925,42.0298,969
926,42.0698,922
927,42.1098,965
928,42.1499,953
929,42.1899,932
930,42.2299,940
931,42.27,951
932,42.31,875
933,42.35,902
934,42.3901,893
935,42.4301,943
936,42.4701,854
937,42.5102,901
938,42.5502,936
939,42.5902,901
940,42.6303,939
941,42.6703,956
942,42.7103,882
943,42.7504,866
944,42.7904,908
945,42.8304,883
946,42.8705,835
947,42.9105,864
948,42.9505,884
949,42.9906,885
950,43.0306,874
951,43.0706,893
952,43.1107,860
953,43.1507,888
954,43.1907,863
955,43.2308,929
956,43.2708,827
957,43.3108,874
958,43.3508,885
959,43.3909,887
960,43.4309,868
961,43.4709,853
962,43.511,877
963,43.551,933
964,43.591,842
965,43.6311,849
966,43.6711,851
967,43.7111,876
968,43.7512,815
969,43.7912,854
970,43.8312,865
971,43.8713,895
972,43.9113,828
973,43.9513,834
974,43.9914,853
975,44.0314,797
976,44.0714,817
977,44.1115,829
978,44.1515,826
979,44.1915,837
980,44.2316,831
981,44.2716,809
982,44.3116,818
983,44.3517,846
984,44.3917,887
985,44.4317,879
986,44.4717,838
987,44.5118,795
988,44.5518,814
989,44.5918,826
990,44.6319,829
991,44.6719,832
992,44.7119,887
993,44.752,801
994,44.792,828
995,44.832,755
996,44.8721,796
997,44.9121,822
998,44.9521,831
999,44.9922,835
1000,45.0322,798
1001,45.0722,795
1002,45.1123,811
1003,45.1523,798
1004,45.1923,824
1005,45.2324,796
1006,45.2724,803
1007,45.3124,815
1008,45.3525,815
1009,45.3925,825
1010,45.4325,825
1011,45.4726,810
1012,45.5126,843
1013,45.5526,849
1014,45.5927,789
1015,45.6327,863
1016,45.6727,772
1017,45.7127,836
1018,45.7528,802
1019,45.7928,784
1020,45.8328,810
1021,45.8729,780
1022,45.9129,715
1023,45.9529,723
1024,45.993,758
1025,46.033,764
1026,46.073,776
1027,46.1131,769
1028,46.1531,786
1029,46.1931,799
1030,46.2332,770
1031,46.2732,799
1032,46.3132,805
1033,46.3533,775
1034,46.3933,764
1035,46.4333,746
1036,46.4734,758
1037,46.5134,689
1038,46.5534,745
1039,46.5935,737
1040,46.6335,747
1041,46.6735,731
1042,46.7136,753
1043,46.7536,714
1044,46.7936,795
1045,46.8336,753
1046,46.8737,732
1047,46.9137,740
1048,46.9537,771
1049,46.9938,717
1050,47.0338,728
1051,47.0738,762
1052,47.1139,700
1053,47.1539,720
1054,47.1939,749
1055,47.234,705
1056,47.274,702
1057,47.314,694
1058,47.3541,765
1059,47.3941,698
1060,47.4341,726
1061,47.4742,743
1062,47.5142,697
1063,47.5542,731
1064,47.5943,672
1065,47.6343,683
1066,47.6743,663
1067,47.7144,686
1068,47.7544,673
1069,47.7944,715
1070,47.8345,662
1071,47.8745,721
1072,47.9145,708
1073,47.9546,748
1074,47.9946,698
1075,48.0346,692
1076,48.0746,645
1077,48.1147,658
1078,48.1547,704
1079,48.1947,674
1080,48.2348,647
1081,48.2748,675
1082,48.3148,641
1083,48.3549,673
1084,48.3949,671
1085,48.4349,693
1086,48.475,674
1087,48.515,657
1088,48.555,637
1089,48.5951,680
1090,48.6351,666
1091,48.6751,651
1092,48.7152,698
1093,48.7552,622
1094,48.7952,673
1095,48.8353,629
1096,48.8753,647
1097,48.9153,662
1098,48.9554,680
1099,48.9954,656
1100,49.0354,625
1101,49.0755,626
1102,49.1155,641
1103,49.1555,643
1104,49.1955,631
1105,49.2356,619
1106,49.2756,668
1107,49.3156,627
1108,49.3557,626
1109,49.3957,626
1110,49.4357,651
1111,49.4758,594
1112,49.5158,633
1113,49.5558,612
1114,49.5959,604
1115,49.6359,658
1116,49.6759,654
1117,49.716,620
1118,49.756,635
1119,49.796,666
1120,49.8361,608
1121,49.8761,613
1122,49.9161,616
1123,49.9562,601
1124,49.9962,621
1125,50.0362,576
1126,50.0763,636
1127,50.1163,600
1128,50.1563,609
1129,50.1964,586
1130,50.2364,590
1131,50.2764,591
1132,50.3165,574
1133,50.3565,566
1134,50.3965,571
1135,50.4365,592
1136,50.4766,593
1137,50.5166,589
1138,50.5566,583
1139,50.5967,574
1140,50.6367,610
1141,50.6767,604
1142,50.7168,564
1143,50.7568,612
1144,50.7968,563
1145,50.8369,619
1146,50.8769,621
1147,50.9169,583
1148,50.957,611
1149,50.997,585
1150,51.037,583
1151,51.0771,571
1152,51.1171,567
1153,51.1571,576
1154,51.1972,530
1155,51.2372,624
1156,51.2772,599
1157,51.3173,541
1158,51.3573,577
1159,51.3973,572
1160,51.4374,539
1161,51.4774,581
1162,51.5174,579
1163,51.5574,539
1164,51.5975,569
1165,51.6375,562
1166,51.6775,614
1167,51.7176,514
1168,51.7576,566
1169,51.7976,582
1170,51.8377,570
1171,51.8777,570
1172,51.9177,551
1173,51.9578,532
1174,51.9978,568
1175,52.0378,528
1176,52.0779,526
1177,52.1179,535
1178,52.1579,568
1179,52.198,497
1180,52.238,516
1181,52.278,558
1182,52.3181,550
1183,52.3581,543
1184,52.3981,521
1185,52.4382,566
1186,52.4782,553
1187,52.5182,538
1188,52.5583,544
1189,52.5983,524
1190,52.6383,510
1191,52.6784,546
1192,52.7184,532
1193,52.7584,500
1194,52.7984,493
1195,52.8385,506
1196,52.8785,552
1197,52.9185,486
1198,52.9586,530
1199,52.9986,537
1200,53.0386,512
1201,53.0787,523
1202,53.1187,517
1203,53.1587,545
1204,53.1988,547
1205,53.2388,507
1206,53.2788,505
1207,53.3189,513
1208,53.3589,530
1209,53.3989,532
1210,53.439,503
1211,53.479,562
1212,53.519,519
1213,53.5591,501
1214,53.5991,531
1215,53.6391,531
1216,53.6792,513
1217,53.7192,524
1218,53.7592,553
1219,53.7993,516
1220,53.8393,559
1221,53.8793,488
1222,53.9193,522
1223,53.9594,505
1224,53.9994,511
1225,54.0394,494
1226,54.0795,471
1227,54.1195,455
1228,54.1595,515
1229,54.1996,514
1230,54.2396,512
1231,54.2796,541
1232,54.3197,487
1233,54.3597,513
1234,54.3997,528
1235,54.4398,521
1236,54.4798,503
1237,54.5198,484
1238,54.5599,516
1239,54.5999,499
1240,54.6399,491
1241,54.68,525
1242,54.72,469
1243,54.76,473
1244,54.8001,474
1245,54.8401,527
1246,54.8801,494
1247,54.9202,434
1248,54.9602,516
1249,55.0002,470
1250,55.0402,489
1251,55.0803,465
1252,55.1203,483
1253,55.1603,469
1254,55.2004,458
1255,55.2404,472
1256,55.2804,495
1257,55.3205,491
1258,55.3605,487
1259,55.4005,494
1260,55.4406,522
1261,55.4806,472
1262,55.5206,505
1263,55.5607,446
1264,55.6007,493
1265,55.6407,449
1266,55.6808,495
1267,55.7208,454
1268,55.7608,507
1269,55.8009,476
1270,55.8409,462
1271,55.8809,506
1272,55.921,527
1273,55.961,466
1274,56.001,460
1275,56.0411,499
1276,56.0811,451
1277,56.1211,468
1278,56.1612,440
1279,56.2012,469
1280,56.2412,451
1281,56.2812,480
1282,56.3213,446
1283,56.3613,461
1284,56.4013,463
1285,56.4414,456
1286,56.4814,485
1287,56.5214,490
1288,56.5615,445
1289,56.6015,435
1290,56.6415,459
1291,56.6816,446
1292,56.7216,475
1293,56.7616,412
1294,56.8017,423
1295,56.8417,463
1296,56.8817,498
1297,56.9218,468
1298,56.9618,495
1299,57.0018,435
1300,57.0419,485
1301,57.0819,473
1302,57.1219,474
1303,57.162,454
1304,57.202,482
1305,57.242,470
1306,57.2821,466
1307,57.3221,459
1308,57.3621,415
1309,57.4021,421
1310,57.4422,418
1311,57.4822,438
1312,57.5222,443
1313,57.5623,462
1314,57.6023,412
1315,57.6423,446
1316,57.6824,432
1317,57.7224,473
1318,57.7624,449
1319,57.8025,436
1320,57.8425,427
1321,57.8825,444
1322,57.9226,450
1323,57.9626,428
1324,58.0026,446
1325,58.0427,470
1326,58.0827,460
1327,58.1227,437
1328,58.1628,449
1329,58.2028,394
1330,58.2428,397
1331,58.2829,425
1332,58.3229,441
1333,58.3629,452
1334,58.403,453
1335,58.443,419
1336,58.483,416
1337,58.5231,438
1338,58.5631,457
1339,58.6031,401
1340,58.6431,403
1341,58.6832,440
1342,58.7232,474
1343,58.7632,494
1344,58.8033,444
1345,58.8433,414
1346,58.8833,420
1347,58.9234,430
1348,58.9634,447
1349,59.0034,414
1350,59.0435,440
1351,59.0835,392
1352,59.1235,391
1353,59.1636,429
1354,59.2036,464
1355,59.2436,432
1356,59.2837,452
1357,59.3237,401
1358,59.3637,400
1359,59.4038,416
1360,59.4438,448
1361,59.4838,397
1362,59.5239,441
1363,59.5639,418
1364,59.6039,424
1365,59.644,437
1366,59.684,405
1367,59.724,438
1368,59.764,439
1369,59.8041,402
1370,59.8441,376
1371,59.8841,424
1372,59.9242,423
1373,59.9642,452
1374,60.0042,416
1375,60.0443,432
1376,60.0843,412
1377,60.1243,386
1378,60.1644,361
1379,60.2044,397
1380,60.2444,446
1381,60.2845,412
1382,60.3245,433
1383,60.3645,397
1384,60.4046,425
1385,60.4446,388
1386,60.4846,381
1387,60.5247,413
1388,60.5647,419
1389,60.6047,383
1390,60.6448,379
1391,60.6848,420
1392,60.7248,421
1393,60.7649,409
1394,60.8049,395
1395,60.8449,375
1396,60.885,404
1397,60.925,410
1398,60.965,428
1399,61.005,406
1400,61.0451,390
1401,61.0851,406
1402,61.1251,384
1403,61.1652,422
1404,61.2052,414
1405,61.2452,425
1406,61.2853,429
1407,61.3253,397
1408,61.3653,378
1409,61.4054,402
1410,61.4454,406
1411,61.4854,373
1412,61.5255,387
1413,61.5655,380
1414,61.6055,391
1415,61.6456,408
1416,61.6856,400
1417,61.7256,425
1418,61.7657,417
1419,61.8057,390
1420,61.8457,384
1421,61.8858,377
1422,61.9258,389
1423,61.9658,419
1424,62.0059,374
1425,62.0459,428
1426,62.0859,384
1427,62.1259,364
1428,62.166,384
1429,62.206,385
1430,62.246,384
1431,62.2861,387
1432,62.3261,397
1433,62.3661,411
1434,62.4062,407
1435,62.4462,372
1436,62.4862,362
1437,62.5263,350
1438,62.5663,422
1439,62.6063,384
1440,62.6464,391
1441,62.6864,394
1442,62.7264,358
1443,62.7665,389
1444,62.8065,417
1445,62.8465,398
1446,62.8866,384
1447,62.9266,394
1448,62.9666,399
1449,63.0067,365
1450,63.0467,420
1451,63.0867,391
1452,63.1268,366
1453,63.1668,379
1454,63.2068,383
1455,63.2469,388
1456,63.2869,343
1457,63.3269,387
1458,63.3669,374
1459,63.407,406
1460,63.447,411
1461,63.487,379
1462,63.5271,343
1463,63.5671,381
1464,63.6071,372
1465,63.6472,343
1466,63.6872,402
1467,63.7272,400
1468,63.7673,370
1469,63.8073,351
1470,63.8473,405
1471,63.8874,398
1472,63.9274,360
1473,63.9674,363
1474,64.0075,380
1475,64.0475,399
1476,64.0875,375
1477,64.1276,392
1478,64.1676,413
1479,64.2076,388
1480,64.2477,413
1481,64.2877,405
1482,64.3277,386
1483,64.3678,401
1484,64.4078,382
1485,64.4478,389
1486,64.4878,384
1487,64.5279,377
1488,64.5679,389
1489,64.6079,372
1490,64.648,370
1491,64.688,359
1492,64.728,385
1493,64.7681,380
1494,64.8081,374
1495,64.8481,371
1496,64.8882,396
1497,64.9282,368
1498,64.9682,389
1499,65.0083,395
1500,65.0483,390
1501,65.0883,379
1502,65.1284,380
1503,65.1684,385
1504,65.2084,357
1505,65.2485,387
1506,65.2885,371
1507,65.3285,389
1508,65.3686,357
1509,65.4086,389
1510,65.4486,363
1511,65.4887,365
1512,65.5287,395
1513,65.5687,382
1514,65.6088,374
1515,65.6488,380
1516,65.6888,391
1517,65.7288,365
1518,65.7689,316
1519,65.8089,397
1520,65.8489,388
1521,65.889,384
1522,65.929,335
1523,65.969,358
1524,66.0091,393
1525,66.0491,385
1526,66.0891,364
1527,66.1292,378
1528,66.1692,349
1529,66.2092,392
1530,66.2493,371
1531,66.2893,349
1532,66.3293,371
1533,66.3694,373
1534,66.4094,366
1535,66.4494,405
1536,66.4895,364
1537,66.5295,375
1538,66.5695,390
1539,66.6096,379
1540,66.6496,356
1541,66.6896,388
1542,66.7297,335
1543,66.7697,353
1544,66.8097,377
1545,66.8497,389
1546,66.8898,338
1547,66.9298,373
1548,66.9698,365
1549,67.0099,373
1550,67.0499,375
1551,67.0899,395
1552,67.13,358
1553,67.17,364
1554,67.21,386
1555,67.2501,304
1556,67.2901,405
1557,67.3301,404
1558,67.3702,396
1559,67.4102,331
1560,67.4502,318
1561,67.4903,350
1562,67.5303,322
1563,67.5703,384
1564,67.6104,371
1565,67.6504,412
1566,67.6904,319
1567,67.7305,373
1568,67.7705,343
1569,67.8105,385
1570,67.8506,350
1571,67.8906,383
1572,67.9306,365
1573,67.9707,385
1574,68.0107,376
1575,68.0507,393
1576,68.0907,371
1577,68.1308,375
1578,68.1708,340
1579,68.2108,337
1580,68.2509,348
1581,68.2909,385
1582,68.3309,346
1583,68.371,357
1584,68.411,373
1585,68.451,375
1586,68.4911,360
1587,68.5311,386
1588,68.5711,359
1589,68.6112,364
1590,68.6512,363
1591,68.6912,315
1592,68.7313,355
1593,68.7713,362
1594,68.8113,333
1595,68.8514,363
1596,68.8914,329
1597,68.9314,384
1598,68.9715,352
1599,69.0115,354
1600,69.0515,381
1601,69.0916,342
1602,69.1316,407
1603,69.1716,356
1604,69.2116,383
1605,69.2517,354
1606,69.2917,366
1607,69.3317,358
1608,69.3718,366
1609,69.4118,338
1610,69.4518,354
1611,69.4919,365
1612,69.5319,369
1613,69.5719,395
1614,69.612,348
1615,69.652,368
1616,69.692,355
1617,69.7321,357
1618,69.7721,346
1619,69.8121,358
1620,69.8522,360
1621,69.8922,338
1622,69.9322,340
1623,69.9723,340
1624,70.0123,361
