Batch,scan004
Instrument ID,084303
Data Mode,%T
Sample,Sample001
Cycle,Cycle01
Date Collected,09/10/2025
Time Collected,06:55:59
Entries,Data Points
nm,%T
390.0,XXX.XXX
391.0,XXX.XXX
392.0,XXX.XXX
393.0,XXX.XXX
394.0,32.094
395.0,33.284
396.0,34.486
397.0,35.056
398.0,37.281
399.0,39.438
400.0,38.845
401.0,37.076
402.0,36.692
403.0,37.817
404.0,38.972
405.0,40.449
406.0,42.860
407.0,44.724
408.0,44.941
409.0,43.959
410.0,43.256
411.0,44.400
412.0,45.715
413.0,44.939
414.0,44.484
415.0,46.665
416.0,48.703
417.0,48.724
418.0,49.087
419.0,50.017
420.0,49.953
421.0,50.263
422.0,51.673
423.0,52.107
424.0,51.466
425.0,51.552
426.0,52.405
427.0,53.311
428.0,53.659
429.0,53.870
430.0,54.916
431.0,55.548
432.0,54.999
433.0,54.573
434.0,54.712
435.0,55.092
436.0,55.834
437.0,56.903
438.0,57.716
439.0,58.172
440.0,58.621
441.0,59.078
442.0,59.440
443.0,59.279
444.0,58.788
445.0,59.243
446.0,60.744
447.0,61.479
448.0,60.195
449.0,59.222
450.0,61.119
451.0,63.399
452.0,63.662
453.0,62.925
454.0,62.546
455.0,63.531
456.0,64.512
457.0,64.094
458.0,63.533
459.0,63.568
460.0,64.743
461.0,66.417
462.0,66.414
463.0,65.184
464.0,64.720
465.0,65.872
466.0,67.512
467.0,67.943
468.0,67.778
469.0,67.546
470.0,67.070
471.0,67.222
472.0,67.846
473.0,68.329
474.0,68.979
475.0,69.586
476.0,69.812
477.0,69.952
478.0,70.112
479.0,70.141
480.0,70.196
481.0,70.054
482.0,69.561
483.0,69.881
484.0,71.114
485.0,71.704
486.0,71.556
487.0,71.871
488.0,72.458
489.0,72.507
490.0,72.558
491.0,72.796
492.0,73.021
493.0,73.471
494.0,73.831
495.0,74.086
496.0,74.297
497.0,74.321
498.0,74.748
499.0,75.440
500.0,75.379
501.0,74.936
502.0,75.272
503.0,75.937
504.0,75.819
505.0,75.639
506.0,76.509
507.0,77.537
508.0,77.597
509.0,77.314
510.0,77.566
511.0,77.775
512.0,77.480
513.0,77.280
514.0,77.303
515.0,77.301
516.0,77.448
517.0,77.978
518.0,78.312
519.0,77.997
520.0,78.003
521.0,78.646
522.0,78.903
523.0,78.830
524.0,79.222
525.0,79.661
526.0,79.675
527.0,79.622
528.0,79.529
529.0,79.342
530.0,79.472
531.0,79.980
532.0,80.360
533.0,80.475
534.0,80.675
535.0,81.068
536.0,81.265
537.0,81.022
538.0,80.724
539.0,80.687
540.0,80.997
541.0,81.500
542.0,81.760
543.0,81.850
544.0,81.950
545.0,81.873
546.0,81.833
547.0,82.105
548.0,82.423
549.0,82.727
550.0,83.053
551.0,83.071
552.0,82.750
553.0,82.423
554.0,82.456
555.0,82.770
556.0,82.755
557.0,82.545
558.0,82.658
559.0,82.693
560.0,82.656
561.0,83.175
562.0,83.709
563.0,83.643
564.0,83.751
565.0,84.310
566.0,84.479
567.0,84.077
568.0,83.594
569.0,83.675
570.0,84.221
571.0,84.293
572.0,83.992
573.0,84.232
574.0,84.752
575.0,84.623
576.0,84.395
577.0,84.546
578.0,84.680
579.0,85.191
580.0,85.735
581.0,85.678
582.0,85.673
583.0,85.900
584.0,85.919
585.0,85.838
586.0,86.052
587.0,86.535
588.0,86.745
589.0,86.594
590.0,86.542
591.0,86.705
592.0,86.831
593.0,86.703
594.0,86.420
595.0,86.301
596.0,86.517
597.0,86.871
598.0,87.048
599.0,87.100
600.0,87.038
601.0,86.843
602.0,86.971
603.0,87.365
604.0,87.352
605.0,87.087
606.0,87.118
607.0,87.285
608.0,87.423
609.0,87.560
610.0,87.584
611.0,87.605
612.0,87.634
613.0,87.481
614.0,87.335
615.0,87.416
616.0,87.532
617.0,87.458
618.0,87.280
619.0,87.318
620.0,87.588
621.0,87.691
622.0,87.573
623.0,87.624
624.0,87.849
625.0,87.938
626.0,87.980
627.0,88.080
628.0,88.147
629.0,88.142
630.0,88.099
631.0,88.052
632.0,87.928
633.0,88.036
634.0,88.386
635.0,88.226
636.0,87.774
637.0,87.855
638.0,88.213
639.0,88.327
640.0,88.270
641.0,88.220
642.0,88.223
643.0,88.264
644.0,88.278
645.0,88.241
646.0,88.381
647.0,88.656
648.0,88.691
649.0,88.638
650.0,88.693
651.0,88.707
652.0,88.755
653.0,88.811
654.0,88.831
655.0,89.104
656.0,89.294
657.0,88.902
658.0,88.632
659.0,88.962
660.0,89.303
661.0,89.313
662.0,89.167
663.0,89.228
664.0,89.438
665.0,89.409
666.0,89.322
667.0,89.187
668.0,88.982
669.0,89.244
670.0,89.614
671.0,89.540
672.0,89.462
673.0,89.424
674.0,89.342
675.0,89.518
676.0,89.618
677.0,89.442
678.0,89.410
679.0,89.490
680.0,89.416
681.0,89.264
682.0,89.243
683.0,89.399
684.0,89.470
685.0,89.455
686.0,89.746
687.0,89.958
688.0,89.613
689.0,89.550
690.0,89.906
691.0,89.661
692.0,89.244
693.0,89.438
694.0,89.675
695.0,89.706
696.0,89.670
697.0,89.371
698.0,89.196
699.0,89.516
700.0,89.892
701.0,89.894
702.0,89.714
703.0,89.822
704.0,90.032
705.0,89.871
706.0,89.703
707.0,89.898
708.0,89.934
709.0,89.513
710.0,89.273
711.0,89.612
712.0,89.969
713.0,89.907
714.0,89.793
715.0,89.830
716.0,89.879
717.0,89.939
718.0,89.845
719.0,89.832
720.0,90.263
721.0,90.485
722.0,90.189
723.0,89.914
724.0,89.827
725.0,89.968
726.0,90.243
727.0,90.084
728.0,89.594
729.0,89.664
730.0,90.152
731.0,90.254
732.0,90.196
733.0,90.303
734.0,90.234
735.0,89.980
736.0,89.866
737.0,90.099
738.0,90.512
739.0,90.512
740.0,90.275
741.0,90.336
742.0,90.314
743.0,90.134
744.0,90.150
745.0,90.184
746.0,90.171
747.0,XXX.XXX
748.0,XXX.XXX
749.0,XXX.XXX
750.0,XXX.XXX
