Batch,scan002
Instrument ID,084303
Data Mode,%T
Sample,Sample001
Cycle,Cycle01
Date Collected,05/02/2025
Time Collected,03:47:05
Entries,Data Points
nm,%T
390.0,XXX.XXX
391.0,XXX.XXX
392.0,XXX.XXX
393.0,XXX.XXX
394.0,21.408
395.0,22.361
396.0,23.057
397.0,22.907
398.0,23.500
399.0,24.949
400.0,25.625
401.0,25.647
402.0,26.568
403.0,28.001
404.0,29.109
405.0,30.583
406.0,31.679
407.0,31.653
408.0,32.018
409.0,32.881
410.0,33.270
411.0,33.876
412.0,34.627
413.0,35.109
414.0,36.174
415.0,37.458
416.0,38.627
417.0,40.200
418.0,40.942
419.0,40.571
420.0,41.154
421.0,42.844
422.0,43.921
423.0,44.045
424.0,44.148
425.0,44.782
426.0,45.831
427.0,46.432
428.0,45.819
429.0,45.294
430.0,46.202
431.0,47.386
432.0,47.572
433.0,47.312
434.0,47.722
435.0,48.887
436.0,49.994
437.0,50.575
438.0,51.109
439.0,51.710
440.0,52.092
441.0,52.906
442.0,53.739
443.0,53.581
444.0,53.544
445.0,54.655
446.0,55.730
447.0,55.328
448.0,54.704
449.0,55.873
450.0,56.976
451.0,56.322
452.0,56.586
453.0,58.519
454.0,59.373
455.0,58.899
456.0,58.706
457.0,58.756
458.0,58.542
459.0,58.800
460.0,60.264
461.0,61.443
462.0,61.061
463.0,60.611
464.0,60.799
465.0,60.841
466.0,61.272
467.0,62.515
468.0,63.094
469.0,62.555
470.0,62.703
471.0,63.881
472.0,64.769
473.0,64.767
474.0,64.410
475.0,64.782
476.0,65.377
477.0,65.002
478.0,64.727
479.0,65.785
480.0,67.067
481.0,67.511
482.0,67.463
483.0,67.295
484.0,67.357
485.0,67.778
486.0,68.131
487.0,68.233
488.0,68.271
489.0,68.537
490.0,68.995
491.0,69.407
492.0,70.030
493.0,70.574
494.0,70.472
495.0,70.257
496.0,70.366
497.0,70.504
498.0,70.643
499.0,71.026
500.0,71.147
501.0,70.863
502.0,71.219
503.0,72.196
504.0,72.950
505.0,73.258
506.0,73.118
507.0,73.181
508.0,73.923
509.0,74.359
510.0,74.288
511.0,74.511
512.0,74.673
513.0,74.527
514.0,74.544
515.0,74.609
516.0,74.935
517.0,75.810
518.0,76.302
519.0,76.284
520.0,76.371
521.0,76.195
522.0,75.953
523.0,76.381
524.0,77.103
525.0,77.352
526.0,77.095
527.0,76.872
528.0,77.122
529.0,77.690
530.0,78.204
531.0,78.525
532.0,78.745
533.0,78.977
534.0,79.192
535.0,79.257
536.0,79.227
537.0,79.371
538.0,79.545
539.0,79.554
540.0,79.692
541.0,79.748
542.0,79.482
543.0,79.785
544.0,80.701
545.0,81.135
546.0,81.152
547.0,80.968
548.0,80.696
549.0,81.292
550.0,82.121
551.0,81.881
552.0,81.359
553.0,81.294
554.0,81.649
555.0,82.306
556.0,82.540
557.0,82.365
558.0,82.572
559.0,82.799
560.0,82.511
561.0,82.651
562.0,83.448
563.0,83.463
564.0,82.797
565.0,82.857
566.0,83.300
567.0,83.389
568.0,83.471
569.0,83.440
570.0,83.498
571.0,84.230
572.0,84.857
573.0,84.814
574.0,84.921
575.0,85.423
576.0,85.658
577.0,85.111
578.0,83.981
579.0,83.646
580.0,84.365
581.0,84.751
582.0,84.676
583.0,84.778
584.0,84.996
585.0,85.126
586.0,85.232
587.0,85.300
588.0,85.136
589.0,85.023
590.0,85.246
591.0,85.455
592.0,85.507
593.0,85.601
594.0,85.853
595.0,86.109
596.0,86.054
597.0,85.865
598.0,85.915
599.0,86.245
600.0,86.501
601.0,86.334
602.0,86.259
603.0,86.656
604.0,86.949
605.0,87.011
606.0,87.182
607.0,87.392
608.0,87.414
609.0,87.269
610.0,87.246
611.0,87.400
612.0,87.510
613.0,87.588
614.0,87.676
615.0,87.707
616.0,87.774
617.0,87.812
618.0,87.713
619.0,87.933
620.0,88.465
621.0,88.507
622.0,88.170
623.0,88.008
624.0,88.050
625.0,88.336
626.0,88.615
627.0,88.675
628.0,88.609
629.0,88.490
630.0,88.564
631.0,88.688
632.0,88.630
633.0,88.664
634.0,88.894
635.0,89.134
636.0,89.140
637.0,88.944
638.0,88.991
639.0,89.242
640.0,89.232
641.0,89.140
642.0,89.393
643.0,89.679
644.0,89.527
645.0,89.392
646.0,89.682
647.0,89.814
648.0,89.738
649.0,89.813
650.0,89.744
651.0,89.646
652.0,89.791
653.0,89.901
654.0,89.873
655.0,89.869
656.0,89.931
657.0,90.000
658.0,90.134
659.0,90.353
660.0,90.382
661.0,90.190
662.0,90.159
663.0,90.213
664.0,90.097
665.0,89.999
666.0,90.172
667.0,90.566
668.0,90.648
669.0,90.301
670.0,90.281
671.0,90.622
672.0,90.608
673.0,90.407
674.0,90.526
675.0,90.837
676.0,91.012
677.0,90.864
678.0,90.697
679.0,90.844
680.0,90.951
681.0,90.876
682.0,90.915
683.0,90.955
684.0,90.915
685.0,91.065
686.0,91.301
687.0,91.292
688.0,91.219
689.0,91.232
690.0,91.112
691.0,91.056
692.0,91.203
693.0,91.245
694.0,91.203
695.0,91.234
696.0,91.310
697.0,91.388
698.0,91.428
699.0,91.452
700.0,91.403
701.0,91.241
702.0,91.199
703.0,91.450
704.0,91.642
705.0,91.402
706.0,91.071
707.0,91.042
708.0,91.220
709.0,91.490
710.0,91.607
711.0,91.425
712.0,91.405
713.0,91.588
714.0,91.446
715.0,91.177
716.0,91.212
717.0,91.342
718.0,91.393
719.0,91.425
720.0,91.379
721.0,91.302
722.0,91.473
723.0,91.901
724.0,92.191
725.0,92.000
726.0,91.488
727.0,91.350
728.0,91.602
729.0,91.664
730.0,91.673
731.0,91.692
732.0,91.694
733.0,91.883
734.0,91.852
735.0,91.575
736.0,91.700
737.0,92.049
738.0,92.032
739.0,91.845
740.0,91.877
741.0,91.959
742.0,91.983
743.0,92.121
744.0,92.304
745.0,92.234
746.0,92.040
747.0,XXX.XXX
748.0,XXX.XXX
749.0,XXX.XXX
750.0,XXX.XXX
