Batch,scan002
Instrument ID,084303
Data Mode,%T
Sample,Sample001
Cycle,Cycle01
Date Collected,14/02/2025
Time Collected,12:24:08
Entries,Data Points
nm,%T
390.0,XXX.XXX
391.0,XXX.XXX
392.0,XXX.XXX
393.0,XXX.XXX
394.0,60.219
395.0,59.325
396.0,56.186
397.0,58.286
398.0,62.474
399.0,61.490
400.0,59.725
401.0,61.704
402.0,64.339
403.0,64.730
404.0,63.526
405.0,63.557
406.0,65.518
407.0,66.913
408.0,67.324
409.0,66.476
410.0,64.120
411.0,64.303
412.0,67.646
413.0,68.901
414.0,67.532
415.0,68.468
416.0,70.978
417.0,71.152
418.0,71.140
419.0,71.560
420.0,70.510
421.0,69.867
422.0,70.762
423.0,72.086
424.0,72.490
425.0,72.337
426.0,73.353
427.0,75.103
428.0,76.197
429.0,76.386
430.0,76.658
431.0,76.757
432.0,75.081
433.0,73.539
434.0,74.724
435.0,76.801
436.0,76.954
437.0,75.962
438.0,76.187
439.0,76.729
440.0,76.241
441.0,76.422
442.0,78.000
443.0,79.048
444.0,78.214
445.0,77.093
446.0,77.727
447.0,79.413
448.0,80.924
449.0,81.550
450.0,80.662
451.0,79.474
452.0,79.290
453.0,80.085
454.0,81.723
455.0,82.558
456.0,81.277
457.0,80.248
458.0,81.460
459.0,83.061
460.0,83.079
461.0,82.115
462.0,81.903
463.0,82.943
464.0,83.534
465.0,82.838
466.0,82.404
467.0,83.304
468.0,84.578
469.0,84.513
470.0,83.685
471.0,83.598
472.0,84.214
473.0,85.473
474.0,85.979
475.0,84.861
476.0,84.484
477.0,85.513
478.0,86.157
479.0,85.887
480.0,85.153
481.0,84.833
482.0,85.801
483.0,86.951
484.0,86.309
485.0,85.171
486.0,86.102
487.0,87.723
488.0,87.783
489.0,87.220
490.0,87.283
491.0,87.306
492.0,86.824
493.0,87.056
494.0,87.830
495.0,87.735
496.0,87.550
497.0,87.702
498.0,87.739
499.0,87.756
500.0,87.655
501.0,88.296
502.0,89.152
503.0,88.317
504.0,87.141
505.0,87.878
506.0,89.439
507.0,89.938
508.0,89.653
509.0,89.168
510.0,88.735
511.0,88.828
512.0,89.121
513.0,89.452
514.0,89.815
515.0,89.746
516.0,89.620
517.0,89.861
518.0,90.141
519.0,90.492
520.0,90.854
521.0,90.712
522.0,90.278
523.0,90.225
524.0,90.690
525.0,91.286
526.0,91.467
527.0,91.115
528.0,90.765
529.0,91.020
530.0,91.380
531.0,91.112
532.0,90.977
533.0,91.425
534.0,91.740
535.0,91.609
536.0,91.392
537.0,91.667
538.0,92.256
539.0,92.534
540.0,92.378
541.0,91.936
542.0,91.713
543.0,91.668
544.0,91.559
545.0,91.999
546.0,92.480
547.0,92.302
548.0,92.382
549.0,92.816
550.0,92.919
551.0,92.765
552.0,92.461
553.0,92.393
554.0,92.752
555.0,92.840
556.0,92.516
557.0,92.257
558.0,92.454
559.0,93.280
560.0,94.061
561.0,93.996
562.0,93.436
563.0,93.377
564.0,93.813
565.0,93.717
566.0,93.013
567.0,92.566
568.0,92.670
569.0,92.983
570.0,93.258
571.0,93.792
572.0,94.482
573.0,94.525
574.0,94.279
575.0,94.322
576.0,93.990
577.0,93.621
578.0,93.917
579.0,94.443
580.0,95.000
581.0,95.371
582.0,95.444
583.0,95.613
584.0,95.808
585.0,95.654
586.0,95.412
587.0,95.480
588.0,95.559
589.0,95.612
590.0,95.818
591.0,95.841
592.0,95.847
593.0,96.195
594.0,96.437
595.0,96.242
596.0,95.969
597.0,96.050
598.0,96.285
599.0,96.210
600.0,96.055
601.0,96.105
602.0,96.322
603.0,96.571
604.0,96.513
605.0,96.295
606.0,96.245
607.0,96.237
608.0,96.308
609.0,96.480
610.0,96.549
611.0,96.489
612.0,96.427
613.0,96.522
614.0,96.670
615.0,96.630
616.0,96.582
617.0,96.709
618.0,96.669
619.0,96.387
620.0,96.250
621.0,96.283
622.0,96.445
623.0,96.662
624.0,96.776
625.0,96.948
626.0,97.022
627.0,96.868
628.0,96.764
629.0,96.611
630.0,96.433
631.0,96.651
632.0,96.923
633.0,96.768
634.0,96.666
635.0,96.769
636.0,96.813
637.0,97.105
638.0,97.374
639.0,96.935
640.0,96.547
641.0,96.919
642.0,97.257
643.0,97.280
644.0,97.230
645.0,96.935
646.0,96.846
647.0,97.094
648.0,97.146
649.0,97.138
650.0,97.180
651.0,97.278
652.0,97.445
653.0,97.475
654.0,97.453
655.0,97.260
656.0,97.001
657.0,97.032
658.0,97.096
659.0,97.233
660.0,97.441
661.0,97.263
662.0,97.022
663.0,97.128
664.0,97.349
665.0,97.544
666.0,97.580
667.0,97.414
668.0,97.483
669.0,97.728
670.0,97.613
671.0,97.190
672.0,96.910
673.0,97.177
674.0,97.609
675.0,97.453
676.0,97.103
677.0,97.205
678.0,97.447
679.0,97.511
680.0,97.674
681.0,97.961
682.0,97.898
683.0,97.485
684.0,97.165
685.0,97.134
686.0,97.477
687.0,97.808
688.0,97.695
689.0,97.573
690.0,97.545
691.0,97.488
692.0,97.807
693.0,98.029
694.0,97.641
695.0,97.327
696.0,97.548
697.0,97.786
698.0,97.556
699.0,97.567
700.0,98.196
701.0,98.551
702.0,98.323
703.0,97.959
704.0,97.926
705.0,98.195
706.0,98.239
707.0,98.060
708.0,98.064
709.0,98.355
710.0,98.360
711.0,97.984
712.0,98.187
713.0,98.731
714.0,98.409
715.0,97.776
716.0,98.010
717.0,98.545
718.0,98.595
719.0,98.384
720.0,98.209
721.0,98.222
722.0,98.053
723.0,97.574
724.0,97.792
725.0,98.597
726.0,98.777
727.0,98.396
728.0,98.098
729.0,98.125
730.0,98.325
731.0,98.302
732.0,98.078
733.0,98.066
734.0,98.429
735.0,98.525
736.0,98.029
737.0,97.768
738.0,97.957
739.0,98.182
740.0,98.541
741.0,98.578
742.0,98.232
743.0,98.483
744.0,98.790
745.0,98.373
746.0,98.051
747.0,XXX.XXX
748.0,XXX.XXX
749.0,XXX.XXX
750.0,XXX.XXX
