Batch,scan001
Instrument ID,084303
Data Mode,%T
Sample,Sample001
Cycle,Cycle01
Date Collected,10/10/2025
Time Collected,07:12:49
Entries,Data Points
nm,%T
390.0,XXX.XXX
391.0,XXX.XXX
392.0,XXX.XXX
393.0,XXX.XXX
394.0,101.931
395.0,103.869
396.0,103.654
397.0,105.937
398.0,105.218
399.0,98.443
400.0,93.295
401.0,95.307
402.0,100.186
403.0,101.727
404.0,100.251
405.0,99.151
406.0,100.465
407.0,101.989
408.0,101.490
409.0,101.141
410.0,99.486
411.0,96.813
412.0,97.399
413.0,99.001
414.0,99.222
415.0,99.104
416.0,98.937
417.0,99.391
418.0,100.250
419.0,99.919
420.0,98.631
421.0,99.417
422.0,101.904
423.0,101.341
424.0,99.202
425.0,101.254
426.0,104.578
427.0,103.662
428.0,100.635
429.0,99.093
430.0,100.362
431.0,103.046
432.0,103.878
433.0,102.856
434.0,101.987
435.0,102.389
436.0,102.885
437.0,100.977
438.0,98.470
439.0,98.269
440.0,98.870
441.0,98.820
442.0,98.746
443.0,98.963
444.0,98.875
445.0,99.063
446.0,100.935
447.0,102.330
448.0,101.422
449.0,99.936
450.0,98.822
451.0,98.775
452.0,99.606
453.0,99.749
454.0,99.785
455.0,100.045
456.0,99.459
457.0,99.283
458.0,100.172
459.0,99.854
460.0,98.870
461.0,99.769
462.0,100.976
463.0,100.418
464.0,99.698
465.0,99.795
466.0,99.832
467.0,99.628
468.0,99.317
469.0,99.286
470.0,99.619
471.0,99.305
472.0,98.632
473.0,98.741
474.0,98.869
475.0,98.935
476.0,99.977
477.0,100.684
478.0,99.822
479.0,98.881
480.0,99.414
481.0,100.168
482.0,99.539
483.0,98.970
484.0,99.291
485.0,99.394
486.0,99.333
487.0,99.526
488.0,99.678
489.0,99.630
490.0,99.473
491.0,98.805
492.0,97.998
493.0,98.729
494.0,100.308
495.0,100.370
496.0,99.263
497.0,98.490
498.0,98.506
499.0,99.325
500.0,99.998
501.0,99.934
502.0,99.806
503.0,99.974
504.0,100.135
505.0,99.807
506.0,99.421
507.0,99.626
508.0,99.998
509.0,100.224
510.0,100.245
511.0,99.829
512.0,99.269
513.0,99.270
514.0,99.652
515.0,99.543
516.0,99.298
517.0,99.357
518.0,99.361
519.0,99.635
520.0,100.089
521.0,100.149
522.0,99.780
523.0,99.239
524.0,99.206
525.0,99.567
526.0,99.726
527.0,100.014
528.0,100.361
529.0,100.333
530.0,100.088
531.0,99.731
532.0,99.548
533.0,99.851
534.0,99.982
535.0,99.777
536.0,99.858
537.0,100.002
538.0,100.157
539.0,100.222
540.0,99.738
541.0,99.395
542.0,99.576
543.0,99.792
544.0,99.866
545.0,99.593
546.0,99.363
547.0,99.868
548.0,100.236
549.0,99.729
550.0,99.544
551.0,100.160
552.0,100.613
553.0,100.419
554.0,99.758
555.0,99.336
556.0,99.544
557.0,99.839
558.0,99.552
559.0,99.122
560.0,99.705
561.0,100.363
562.0,99.936
563.0,99.732
564.0,100.130
565.0,99.942
566.0,99.337
567.0,99.628
568.0,100.482
569.0,100.432
570.0,100.190
571.0,100.307
572.0,99.664
573.0,98.883
574.0,98.983
575.0,99.775
576.0,100.850
577.0,100.880
578.0,99.473
579.0,98.640
580.0,99.216
581.0,99.837
582.0,100.050
583.0,100.213
584.0,100.176
585.0,100.103
586.0,100.050
587.0,99.805
588.0,99.680
589.0,99.857
590.0,100.140
591.0,100.305
592.0,100.229
593.0,100.115
594.0,100.072
595.0,100.016
596.0,99.968
597.0,99.906
598.0,99.874
599.0,99.993
600.0,100.186
601.0,100.270
602.0,100.204
603.0,100.020
604.0,99.824
605.0,99.776
606.0,99.823
607.0,99.872
608.0,99.966
609.0,99.990
610.0,99.897
611.0,99.871
612.0,99.912
613.0,99.916
614.0,99.946
615.0,100.037
616.0,100.028
617.0,99.812
618.0,99.661
619.0,99.833
620.0,100.025
621.0,99.939
622.0,99.831
623.0,99.944
624.0,100.124
625.0,100.187
626.0,100.069
627.0,99.852
628.0,99.820
629.0,99.988
630.0,100.165
631.0,100.255
632.0,100.096
633.0,99.874
634.0,99.899
635.0,99.890
636.0,99.671
637.0,99.628
638.0,99.822
639.0,99.935
640.0,100.061
641.0,100.157
642.0,99.939
643.0,99.822
644.0,100.126
645.0,100.336
646.0,100.195
647.0,99.988
648.0,99.763
649.0,99.656
650.0,99.882
651.0,100.033
652.0,99.917
653.0,99.896
654.0,99.947
655.0,99.852
656.0,99.865
657.0,100.100
658.0,100.144
659.0,99.930
660.0,99.831
661.0,99.969
662.0,100.033
663.0,99.942
664.0,99.971
665.0,100.006
666.0,99.933
667.0,99.865
668.0,99.861
669.0,99.998
670.0,99.996
671.0,99.676
672.0,99.541
673.0,99.773
674.0,99.900
675.0,99.820
676.0,99.782
677.0,99.843
678.0,99.984
679.0,100.120
680.0,100.086
681.0,99.859
682.0,99.739
683.0,99.942
684.0,100.128
685.0,99.969
686.0,99.696
687.0,99.651
688.0,99.705
689.0,99.630
690.0,99.659
691.0,99.908
692.0,100.096
693.0,100.071
694.0,99.916
695.0,99.834
696.0,99.852
697.0,99.828
698.0,99.868
699.0,99.975
700.0,99.925
701.0,99.791
702.0,99.864
703.0,100.038
704.0,99.935
705.0,99.845
706.0,100.103
707.0,100.183
708.0,100.032
709.0,100.069
710.0,99.982
711.0,99.744
712.0,99.749
713.0,99.836
714.0,99.881
715.0,99.993
716.0,100.006
717.0,99.977
718.0,100.162
719.0,100.312
720.0,100.071
721.0,99.733
722.0,99.771
723.0,99.962
724.0,100.006
725.0,100.100
726.0,100.153
727.0,99.937
728.0,99.740
729.0,99.895
730.0,100.057
731.0,99.852
732.0,99.720
733.0,99.914
734.0,100.126
735.0,100.128
736.0,99.894
737.0,99.836
738.0,100.065
739.0,100.092
740.0,99.939
741.0,99.988
742.0,100.176
743.0,100.168
744.0,99.933
745.0,99.764
746.0,99.830
747.0,XXX.XXX
748.0,XXX.XXX
749.0,XXX.XXX
750.0,XXX.XXX
