Batch	scan004
Instrument ID	084303
Data Mode	%T
Sample	Sample001
Cycle	Cycle01
Date Collected	19/02/2025
Time Collected	01:12:25
Entries	Data Points
nm	%T
390.0	XXX.XXX
391.0	XXX.XXX
392.0	XXX.XXX
393.0	XXX.XXX
394.0	52.298
395.0	52.344
396.0	50.736
397.0	51.784
398.0	53.968
399.0	54.219
400.0	54.320
401.0	55.510
402.0	55.751
403.0	55.919
404.0	57.329
405.0	57.596
406.0	56.239
407.0	56.542
408.0	58.457
409.0	59.075
410.0	59.013
411.0	60.088
412.0	60.834
413.0	59.910
414.0	59.762
415.0	61.362
416.0	62.710
417.0	63.488
418.0	63.854
419.0	64.291
420.0	65.340
421.0	64.609
422.0	62.504
423.0	62.894
424.0	64.267
425.0	64.319
426.0	65.345
427.0	66.836
428.0	66.862
429.0	67.324
430.0	67.695
431.0	66.455
432.0	66.251
433.0	67.535
434.0	68.622
435.0	68.791
436.0	67.705
437.0	67.705
438.0	69.409
439.0	70.893
440.0	72.168
441.0	72.104
442.0	71.210
443.0	71.915
444.0	72.109
445.0	70.991
446.0	71.256
447.0	72.434
448.0	72.952
449.0	73.441
450.0	73.931
451.0	73.974
452.0	74.635
453.0	75.505
454.0	75.058
455.0	74.284
456.0	74.629
457.0	75.512
458.0	75.661
459.0	75.643
460.0	76.570
461.0	77.236
462.0	76.919
463.0	76.553
464.0	76.526
465.0	77.148
466.0	77.990
467.0	78.304
468.0	78.539
469.0	78.663
470.0	78.538
471.0	78.659
472.0	78.816
473.0	78.759
474.0	78.587
475.0	78.566
476.0	79.432
477.0	80.841
478.0	81.370
479.0	80.946
480.0	80.648
481.0	80.870
482.0	81.103
483.0	81.094
484.0	81.189
485.0	81.278
486.0	81.107
487.0	80.965
488.0	81.328
489.0	82.253
490.0	82.664
491.0	82.053
492.0	81.970
493.0	83.094
494.0	83.623
495.0	82.930
496.0	82.797
497.0	83.520
498.0	83.845
499.0	83.721
500.0	83.514
501.0	83.782
502.0	84.909
503.0	85.332
504.0	84.678
505.0	84.909
506.0	85.701
507.0	85.691
508.0	85.550
509.0	85.594
510.0	85.707
511.0	86.143
512.0	86.252
513.0	86.341
514.0	87.060
515.0	87.138
516.0	86.499
517.0	86.252
518.0	85.931
519.0	85.603
520.0	86.235
521.0	87.207
522.0	87.403
523.0	87.260
524.0	87.623
525.0	88.001
526.0	87.708
527.0	87.491
528.0	88.072
529.0	88.603
530.0	88.386
531.0	88.201
532.0	88.460
533.0	88.313
534.0	87.834
535.0	88.163
536.0	88.770
537.0	88.632
538.0	88.684
539.0	89.233
540.0	88.913
541.0	87.931
542.0	88.063
543.0	89.182
544.0	89.672
545.0	89.593
546.0	89.639
547.0	89.500
548.0	89.271
549.0	89.479
550.0	89.786
551.0	89.738
552.0	89.881
553.0	90.199
554.0	89.866
555.0	89.479
556.0	90.029
557.0	90.660
558.0	90.375
559.0	89.945
560.0	90.170
561.0	90.539
562.0	90.772
563.0	91.454
564.0	92.317
565.0	92.333
566.0	91.786
567.0	91.356
568.0	90.905
569.0	90.758
570.0	91.393
571.0	91.804
572.0	91.036
573.0	90.549
574.0	91.244
575.0	91.581
576.0	90.998
577.0	90.505
578.0	90.809
579.0	91.315
580.0	91.206
581.0	91.190
582.0	91.485
583.0	91.407
584.0	91.215
585.0	91.244
586.0	91.504
587.0	91.818
588.0	91.846
589.0	91.831
590.0	91.902
591.0	91.842
592.0	91.901
593.0	92.198
594.0	92.327
595.0	92.252
596.0	92.305
597.0	92.124
598.0	91.614
599.0	91.566
600.0	91.926
601.0	92.287
602.0	92.662
603.0	92.795
604.0	92.604
605.0	92.239
606.0	91.993
607.0	92.205
608.0	92.451
609.0	92.352
610.0	92.248
611.0	92.308
612.0	92.371
613.0	92.299
614.0	92.378
615.0	92.606
616.0	92.541
617.0	92.530
618.0	92.804
619.0	92.956
620.0	93.005
621.0	93.005
622.0	92.785
623.0	92.588
624.0	92.603
625.0	92.670
626.0	92.920
627.0	93.220
628.0	93.161
629.0	93.087
630.0	93.196
631.0	93.215
632.0	93.291
633.0	93.286
634.0	93.105
635.0	93.184
636.0	93.444
637.0	93.504
638.0	93.399
639.0	93.394
640.0	93.430
641.0	93.352
642.0	93.264
643.0	93.296
644.0	93.486
645.0	93.466
646.0	93.110
647.0	92.981
648.0	93.208
649.0	93.450
650.0	93.700
651.0	93.986
652.0	94.099
653.0	93.995
654.0	93.762
655.0	93.566
656.0	93.655
657.0	93.782
658.0	93.722
659.0	93.874
660.0	94.096
661.0	94.022
662.0	93.920
663.0	93.914
664.0	93.963
665.0	93.955
666.0	93.824
667.0	93.928
668.0	94.213
669.0	94.196
670.0	93.971
671.0	93.861
672.0	93.916
673.0	94.097
674.0	94.158
675.0	93.910
676.0	93.683
677.0	93.867
678.0	94.194
679.0	94.197
680.0	93.963
681.0	93.800
682.0	93.772
683.0	93.829
684.0	93.994
685.0	94.294
686.0	94.615
687.0	94.677
688.0	94.474
689.0	94.307
690.0	94.203
691.0	94.059
692.0	93.908
693.0	94.020
694.0	94.603
695.0	94.914
696.0	94.434
697.0	94.094
698.0	94.394
699.0	94.714
700.0	94.774
701.0	94.581
702.0	94.280
703.0	94.324
704.0	94.564
705.0	94.569
706.0	94.571
707.0	94.567
708.0	94.379
709.0	94.386
710.0	94.440
711.0	94.185
712.0	94.058
713.0	94.254
714.0	94.631
715.0	94.931
716.0	94.806
717.0	94.611
718.0	94.603
719.0	94.569
720.0	94.502
721.0	94.369
722.0	94.284
723.0	94.428
724.0	94.742
725.0	94.888
726.0	94.420
727.0	94.022
728.0	94.438
729.0	94.812
730.0	94.608
731.0	94.386
732.0	94.388
733.0	94.456
734.0	94.568
735.0	94.609
736.0	94.419
737.0	94.284
738.0	94.639
739.0	95.041
740.0	94.888
741.0	94.835
742.0	95.232
743.0	95.265
744.0	94.932
745.0	94.880
746.0	94.881
747.0	XXX.XXX
748.0	XXX.XXX
749.0	XXX.XXX
750.0	XXX.XXX
