Batch,scan002
Instrument ID,084303
Data Mode,%T
Sample,Sample001
Cycle,Cycle01
Date Collected,08/10/2025
Time Collected,05:35:47
Entries,Data Points
nm,%T
390.0,XXX.XXX
391.0,XXX.XXX
392.0,XXX.XXX
393.0,XXX.XXX
394.0,68.312
395.0,69.595
396.0,71.022
397.0,72.700
398.0,73.040
399.0,73.976
400.0,75.616
401.0,76.240
402.0,76.816
403.0,76.815
404.0,76.976
405.0,78.609
406.0,78.330
407.0,78.039
408.0,81.776
409.0,83.398
410.0,80.581
411.0,79.517
412.0,81.378
413.0,83.000
414.0,83.628
415.0,84.706
416.0,85.355
417.0,85.073
418.0,85.952
419.0,86.306
420.0,84.696
421.0,84.787
422.0,87.056
423.0,88.411
424.0,88.567
425.0,87.544
426.0,85.681
427.0,85.510
428.0,87.581
429.0,89.297
430.0,89.269
431.0,88.921
432.0,88.561
433.0,88.580
434.0,90.349
435.0,91.486
436.0,89.809
437.0,87.868
438.0,88.164
439.0,89.967
440.0,91.310
441.0,91.592
442.0,90.778
443.0,89.668
444.0,90.257
445.0,90.949
446.0,90.327
447.0,90.708
448.0,91.726
449.0,91.677
450.0,90.606
451.0,89.565
452.0,90.157
453.0,91.568
454.0,92.082
455.0,91.604
456.0,90.253
457.0,89.927
458.0,91.907
459.0,93.051
460.0,91.619
461.0,90.377
462.0,91.423
463.0,93.001
464.0,92.864
465.0,91.955
466.0,91.798
467.0,92.157
468.0,93.066
469.0,94.400
470.0,94.744
471.0,94.074
472.0,93.388
473.0,92.679
474.0,92.389
475.0,93.014
476.0,93.738
477.0,93.641
478.0,92.828
479.0,92.521
480.0,93.238
481.0,93.469
482.0,93.038
483.0,93.491
484.0,93.834
485.0,93.141
486.0,92.988
487.0,93.401
488.0,93.810
489.0,94.288
490.0,94.516
491.0,94.999
492.0,95.466
493.0,95.118
494.0,94.367
495.0,94.054
496.0,94.487
497.0,94.559
498.0,93.832
499.0,93.598
500.0,94.366
501.0,95.078
502.0,94.894
503.0,94.576
504.0,94.672
505.0,94.513
506.0,94.247
507.0,94.271
508.0,94.727
509.0,95.589
510.0,95.564
511.0,94.762
512.0,94.552
513.0,94.485
514.0,94.462
515.0,94.764
516.0,94.560
517.0,94.569
518.0,95.493
519.0,95.909
520.0,95.718
521.0,95.663
522.0,95.231
523.0,94.805
524.0,95.073
525.0,95.478
526.0,95.732
527.0,95.735
528.0,95.574
529.0,95.696
530.0,95.850
531.0,95.826
532.0,95.478
533.0,94.998
534.0,95.230
535.0,95.494
536.0,95.235
537.0,95.470
538.0,95.992
539.0,96.064
540.0,95.706
541.0,95.413
542.0,95.734
543.0,96.023
544.0,96.212
545.0,96.578
546.0,96.213
547.0,95.617
548.0,95.706
549.0,95.804
550.0,95.468
551.0,95.193
552.0,95.347
553.0,95.265
554.0,94.844
555.0,95.077
556.0,95.633
557.0,95.797
558.0,95.652
559.0,95.121
560.0,94.904
561.0,95.745
562.0,96.451
563.0,95.926
564.0,95.292
565.0,95.696
566.0,96.169
567.0,95.648
568.0,95.373
569.0,95.959
570.0,95.711
571.0,95.121
572.0,95.776
573.0,96.384
574.0,96.204
575.0,96.252
576.0,96.206
577.0,95.588
578.0,95.243
579.0,95.675
580.0,96.291
581.0,96.546
582.0,96.733
583.0,97.021
584.0,96.984
585.0,96.575
586.0,96.352
587.0,96.570
588.0,96.730
589.0,96.586
590.0,96.562
591.0,96.726
592.0,96.790
593.0,96.701
594.0,96.472
595.0,96.375
596.0,96.685
597.0,96.900
598.0,96.607
599.0,96.411
600.0,96.751
601.0,97.017
602.0,96.936
603.0,96.949
604.0,96.949
605.0,96.836
606.0,96.994
607.0,97.197
608.0,97.061
609.0,96.857
610.0,96.840
611.0,96.863
612.0,96.781
613.0,96.705
614.0,96.695
615.0,96.706
616.0,96.760
617.0,96.855
618.0,96.968
619.0,97.082
620.0,97.164
621.0,97.060
622.0,96.848
623.0,96.949
624.0,97.180
625.0,97.210
626.0,97.277
627.0,97.207
628.0,96.966
629.0,97.126
630.0,97.270
631.0,96.780
632.0,96.317
633.0,96.570
634.0,97.137
635.0,97.265
636.0,97.068
637.0,97.100
638.0,97.037
639.0,96.636
640.0,96.656
641.0,97.024
642.0,96.975
643.0,96.705
644.0,96.626
645.0,96.817
646.0,97.076
647.0,97.134
648.0,97.148
649.0,97.252
650.0,97.333
651.0,97.260
652.0,97.136
653.0,97.022
654.0,96.908
655.0,97.166
656.0,97.465
657.0,97.178
658.0,96.873
659.0,96.927
660.0,96.942
661.0,96.934
662.0,97.060
663.0,97.053
664.0,96.802
665.0,96.730
666.0,96.985
667.0,97.214
668.0,97.131
669.0,96.722
670.0,96.546
671.0,96.891
672.0,97.241
673.0,97.327
674.0,97.228
675.0,97.107
676.0,97.127
677.0,97.215
678.0,97.190
679.0,97.157
680.0,97.238
681.0,97.246
682.0,97.364
683.0,97.677
684.0,97.596
685.0,97.300
686.0,97.474
687.0,97.660
688.0,97.509
689.0,97.346
690.0,97.010
691.0,96.786
692.0,96.981
693.0,97.151
694.0,97.354
695.0,97.577
696.0,97.439
697.0,97.108
698.0,96.969
699.0,97.278
700.0,97.612
701.0,97.388
702.0,97.119
703.0,97.242
704.0,97.430
705.0,97.508
706.0,97.530
707.0,97.494
708.0,97.384
709.0,97.295
710.0,97.231
711.0,97.200
712.0,97.346
713.0,97.498
714.0,97.302
715.0,97.055
716.0,97.351
717.0,97.596
718.0,97.245
719.0,97.044
720.0,97.148
721.0,97.210
722.0,97.389
723.0,97.577
724.0,97.405
725.0,97.139
726.0,97.270
727.0,97.447
728.0,97.216
729.0,97.086
730.0,97.352
731.0,97.407
732.0,97.189
733.0,97.148
734.0,97.339
735.0,97.447
736.0,97.349
737.0,97.447
738.0,97.594
739.0,97.479
740.0,97.458
741.0,97.401
742.0,97.142
743.0,97.285
744.0,97.799
745.0,97.875
746.0,97.434
747.0,XXX.XXX
748.0,XXX.XXX
749.0,XXX.XXX
750.0,XXX.XXX
