Batch,scan005
Instrument ID,084303
Data Mode,%T
Sample,Sample001
Cycle,Cycle01
Date Collected,09/10/2025
Time Collected,07:07:41
Entries,Data Points
nm,%T
390.0,XXX.XXX
391.0,XXX.XXX
392.0,XXX.XXX
393.0,XXX.XXX
394.0,27.562
395.0,29.078
396.0,29.182
397.0,28.767
398.0,30.691
399.0,32.535
400.0,32.143
401.0,31.509
402.0,31.837
403.0,32.816
404.0,34.260
405.0,35.534
406.0,36.573
407.0,38.360
408.0,39.505
409.0,38.831
410.0,39.029
411.0,40.539
412.0,40.519
413.0,39.466
414.0,39.810
415.0,41.338
416.0,42.651
417.0,43.544
418.0,44.513
419.0,45.438
420.0,45.491
421.0,44.722
422.0,45.076
423.0,46.738
424.0,47.433
425.0,47.238
426.0,47.234
427.0,47.564
428.0,48.333
429.0,49.021
430.0,50.003
431.0,51.045
432.0,50.852
433.0,50.714
434.0,51.457
435.0,51.837
436.0,52.238
437.0,53.261
438.0,54.010
439.0,53.902
440.0,54.002
441.0,55.164
442.0,55.730
443.0,55.770
444.0,56.509
445.0,56.180
446.0,55.347
447.0,56.110
448.0,56.619
449.0,56.140
450.0,57.011
451.0,58.820
452.0,59.754
453.0,59.757
454.0,59.466
455.0,59.880
456.0,60.544
457.0,60.783
458.0,61.250
459.0,61.605
460.0,61.971
461.0,62.874
462.0,63.011
463.0,62.355
464.0,62.704
465.0,63.983
466.0,64.857
467.0,65.153
468.0,65.598
469.0,65.773
470.0,64.979
471.0,65.002
472.0,66.238
473.0,66.559
474.0,66.529
475.0,67.428
476.0,68.347
477.0,68.382
478.0,67.851
479.0,67.620
480.0,68.110
481.0,68.814
482.0,68.661
483.0,68.170
484.0,68.839
485.0,69.983
486.0,70.374
487.0,70.441
488.0,70.784
489.0,71.249
490.0,71.654
491.0,72.125
492.0,72.560
493.0,72.600
494.0,72.646
495.0,73.346
496.0,73.813
497.0,73.355
498.0,73.352
499.0,74.186
500.0,74.689
501.0,74.805
502.0,74.904
503.0,74.995
504.0,75.046
505.0,75.207
506.0,75.660
507.0,75.840
508.0,76.004
509.0,77.060
510.0,77.969
511.0,77.649
512.0,77.055
513.0,77.056
514.0,77.287
515.0,77.586
516.0,78.174
517.0,78.584
518.0,78.314
519.0,77.791
520.0,77.688
521.0,78.003
522.0,78.202
523.0,78.396
524.0,79.067
525.0,79.783
526.0,80.037
527.0,80.046
528.0,80.180
529.0,80.320
530.0,80.191
531.0,80.239
532.0,80.712
533.0,81.091
534.0,81.162
535.0,81.376
536.0,81.932
537.0,82.112
538.0,81.736
539.0,81.700
540.0,82.083
541.0,82.331
542.0,82.500
543.0,82.676
544.0,82.700
545.0,82.598
546.0,82.661
547.0,82.921
548.0,83.039
549.0,83.284
550.0,83.809
551.0,83.865
552.0,83.632
553.0,83.600
554.0,83.359
555.0,83.160
556.0,83.444
557.0,84.091
558.0,84.406
559.0,83.669
560.0,83.339
561.0,84.593
562.0,85.446
563.0,85.038
564.0,84.878
565.0,85.128
566.0,85.132
567.0,85.070
568.0,85.300
569.0,85.875
570.0,85.977
571.0,85.082
572.0,84.378
573.0,84.674
574.0,85.615
575.0,86.294
576.0,85.712
577.0,84.753
578.0,84.898
579.0,85.856
580.0,86.545
581.0,86.628
582.0,86.608
583.0,86.743
584.0,86.807
585.0,86.847
586.0,87.107
587.0,87.366
588.0,87.272
589.0,87.193
590.0,87.437
591.0,87.632
592.0,87.647
593.0,87.641
594.0,87.563
595.0,87.415
596.0,87.493
597.0,87.736
598.0,87.750
599.0,87.814
600.0,87.964
601.0,87.716
602.0,87.617
603.0,88.107
604.0,88.380
605.0,88.243
606.0,88.276
607.0,88.444
608.0,88.500
609.0,88.437
610.0,88.483
611.0,88.739
612.0,88.744
613.0,88.427
614.0,88.333
615.0,88.575
616.0,88.747
617.0,88.660
618.0,88.556
619.0,88.587
620.0,88.572
621.0,88.534
622.0,88.672
623.0,88.905
624.0,89.112
625.0,89.213
626.0,89.195
627.0,89.204
628.0,89.273
629.0,89.350
630.0,89.533
631.0,89.605
632.0,89.312
633.0,89.222
634.0,89.493
635.0,89.507
636.0,89.312
637.0,89.381
638.0,89.698
639.0,89.809
640.0,89.641
641.0,89.588
642.0,89.687
643.0,89.741
644.0,89.626
645.0,89.365
646.0,89.432
647.0,89.872
648.0,89.967
649.0,89.827
650.0,89.972
651.0,90.052
652.0,89.915
653.0,89.963
654.0,90.196
655.0,90.372
656.0,90.461
657.0,90.425
658.0,90.293
659.0,90.331
660.0,90.482
661.0,90.459
662.0,90.402
663.0,90.419
664.0,90.370
665.0,90.345
666.0,90.486
667.0,90.671
668.0,90.780
669.0,90.894
670.0,90.910
671.0,90.790
672.0,90.795
673.0,90.810
674.0,90.630
675.0,90.553
676.0,90.706
677.0,90.801
678.0,90.912
679.0,91.107
680.0,90.980
681.0,90.712
682.0,90.812
683.0,91.168
684.0,91.444
685.0,91.435
686.0,91.300
687.0,91.128
688.0,90.876
689.0,90.981
690.0,91.229
691.0,90.958
692.0,90.750
693.0,91.042
694.0,91.158
695.0,90.995
696.0,90.885
697.0,90.798
698.0,90.829
699.0,90.988
700.0,91.169
701.0,91.263
702.0,91.121
703.0,91.138
704.0,91.497
705.0,91.580
706.0,91.322
707.0,91.242
708.0,91.247
709.0,91.085
710.0,91.037
711.0,91.333
712.0,91.566
713.0,91.387
714.0,91.237
715.0,91.334
716.0,91.410
717.0,91.536
718.0,91.752
719.0,91.745
720.0,91.346
721.0,91.168
722.0,91.712
723.0,92.152
724.0,91.828
725.0,91.510
726.0,91.729
727.0,91.803
728.0,91.562
729.0,91.672
730.0,91.972
731.0,92.033
732.0,92.043
733.0,91.928
734.0,91.543
735.0,91.294
736.0,91.538
737.0,91.971
738.0,92.116
739.0,92.034
740.0,92.052
741.0,92.077
742.0,91.904
743.0,91.791
744.0,91.859
745.0,91.835
746.0,91.758
747.0,XXX.XXX
748.0,XXX.XXX
749.0,XXX.XXX
750.0,XXX.XXX
