Batch,scan002
Instrument ID,084303
Data Mode,%T
Sample,Sample001
Cycle,Cycle01
Date Collected,09/05/2025
Time Collected,02:48:16
Entries,Data Points
nm,%T
390.0,XXX.XXX
391.0,XXX.XXX
392.0,XXX.XXX
393.0,XXX.XXX
394.0,31.101
395.0,32.166
396.0,32.350
397.0,34.063
398.0,36.423
399.0,36.761
400.0,36.320
401.0,37.592
402.0,38.703
403.0,38.094
404.0,38.033
405.0,39.303
406.0,39.927
407.0,39.495
408.0,39.730
409.0,40.513
410.0,40.914
411.0,41.453
412.0,42.657
413.0,44.320
414.0,45.588
415.0,45.681
416.0,44.971
417.0,44.722
418.0,45.084
419.0,45.593
420.0,46.537
421.0,47.725
422.0,48.600
423.0,49.522
424.0,50.593
425.0,50.721
426.0,50.393
427.0,50.685
428.0,50.871
429.0,51.188
430.0,52.277
431.0,52.992
432.0,52.186
433.0,51.573
434.0,53.015
435.0,54.462
436.0,54.934
437.0,55.906
438.0,56.723
439.0,56.021
440.0,54.781
441.0,54.899
442.0,55.860
443.0,56.204
444.0,56.313
445.0,57.240
446.0,58.416
447.0,58.505
448.0,57.870
449.0,57.395
450.0,58.193
451.0,60.625
452.0,61.492
453.0,59.801
454.0,59.504
455.0,61.087
456.0,61.642
457.0,61.113
458.0,60.819
459.0,61.049
460.0,61.507
461.0,61.909
462.0,62.373
463.0,62.941
464.0,63.385
465.0,63.815
466.0,64.137
467.0,64.316
468.0,64.848
469.0,65.244
470.0,65.131
471.0,65.162
472.0,65.440
473.0,65.792
474.0,66.036
475.0,65.894
476.0,65.896
477.0,66.617
478.0,67.402
479.0,67.896
480.0,68.198
481.0,68.153
482.0,68.438
483.0,68.973
484.0,68.992
485.0,68.749
486.0,68.552
487.0,69.267
488.0,70.685
489.0,70.822
490.0,70.331
491.0,70.884
492.0,71.691
493.0,71.984
494.0,71.941
495.0,71.786
496.0,71.753
497.0,72.000
498.0,72.345
499.0,72.567
500.0,73.070
501.0,73.452
502.0,73.039
503.0,72.695
504.0,73.339
505.0,74.521
506.0,74.834
507.0,74.105
508.0,73.822
509.0,74.443
510.0,75.168
511.0,75.389
512.0,75.238
513.0,75.537
514.0,76.205
515.0,76.183
516.0,75.825
517.0,75.919
518.0,76.282
519.0,76.763
520.0,76.953
521.0,77.066
522.0,77.518
523.0,77.783
524.0,77.943
525.0,77.971
526.0,77.645
527.0,77.488
528.0,77.505
529.0,77.478
530.0,77.602
531.0,77.958
532.0,78.506
533.0,79.138
534.0,79.549
535.0,79.509
536.0,79.236
537.0,79.114
538.0,79.454
539.0,80.171
540.0,80.365
541.0,79.728
542.0,79.527
543.0,80.387
544.0,81.049
545.0,80.862
546.0,80.561
547.0,80.384
548.0,80.497
549.0,81.173
550.0,81.632
551.0,81.516
552.0,81.688
553.0,81.881
554.0,81.494
555.0,81.478
556.0,81.909
557.0,81.985
558.0,81.986
559.0,82.177
560.0,82.294
561.0,82.228
562.0,82.193
563.0,82.431
564.0,82.893
565.0,83.262
566.0,83.380
567.0,83.351
568.0,83.146
569.0,82.764
570.0,82.482
571.0,82.555
572.0,83.111
573.0,83.758
574.0,83.754
575.0,83.599
576.0,83.979
577.0,84.024
578.0,83.639
579.0,83.963
580.0,84.804
581.0,85.184
582.0,85.057
583.0,85.045
584.0,85.371
585.0,85.577
586.0,85.679
587.0,85.810
588.0,85.501
589.0,85.202
590.0,85.522
591.0,85.889
592.0,85.998
593.0,86.134
594.0,86.382
595.0,86.493
596.0,86.315
597.0,86.207
598.0,86.424
599.0,86.763
600.0,86.947
601.0,86.802
602.0,86.505
603.0,86.477
604.0,86.660
605.0,86.696
606.0,86.737
607.0,87.006
608.0,87.242
609.0,87.278
610.0,87.174
611.0,87.037
612.0,87.062
613.0,87.244
614.0,87.490
615.0,87.562
616.0,87.268
617.0,87.119
618.0,87.457
619.0,87.690
620.0,87.423
621.0,87.271
622.0,87.714
623.0,88.084
624.0,87.783
625.0,87.372
626.0,87.478
627.0,87.675
628.0,87.499
629.0,87.395
630.0,87.590
631.0,87.736
632.0,87.895
633.0,88.215
634.0,88.341
635.0,88.178
636.0,88.119
637.0,88.138
638.0,87.936
639.0,87.774
640.0,88.046
641.0,88.391
642.0,88.323
643.0,88.199
644.0,88.331
645.0,88.361
646.0,88.290
647.0,88.388
648.0,88.511
649.0,88.583
650.0,88.576
651.0,88.547
652.0,88.748
653.0,88.844
654.0,88.664
655.0,88.736
656.0,88.937
657.0,88.911
658.0,88.817
659.0,88.661
660.0,88.470
661.0,88.542
662.0,88.750
663.0,88.784
664.0,88.846
665.0,88.988
666.0,88.962
667.0,88.895
668.0,88.937
669.0,89.068
670.0,89.179
671.0,89.043
672.0,88.739
673.0,88.563
674.0,88.646
675.0,88.809
676.0,88.836
677.0,88.906
678.0,89.048
679.0,89.083
680.0,89.113
681.0,89.237
682.0,89.330
683.0,89.183
684.0,89.041
685.0,89.284
686.0,89.553
687.0,89.541
688.0,89.524
689.0,89.555
690.0,89.475
691.0,89.368
692.0,89.364
693.0,89.456
694.0,89.510
695.0,89.557
696.0,89.757
697.0,89.860
698.0,89.760
699.0,89.650
700.0,89.350
701.0,89.152
702.0,89.637
703.0,90.290
704.0,90.387
705.0,90.215
706.0,90.055
707.0,89.792
708.0,89.843
709.0,90.134
710.0,89.924
711.0,89.526
712.0,89.631
713.0,89.970
714.0,90.055
715.0,90.160
716.0,90.433
717.0,90.256
718.0,89.811
719.0,89.909
720.0,90.074
721.0,89.808
722.0,89.824
723.0,90.172
724.0,90.026
725.0,89.615
726.0,89.606
727.0,89.740
728.0,89.796
729.0,89.878
730.0,90.076
731.0,90.405
732.0,90.305
733.0,89.815
734.0,89.821
735.0,90.167
736.0,90.150
737.0,89.909
738.0,89.769
739.0,89.871
740.0,90.281
741.0,90.468
742.0,90.056
743.0,89.616
744.0,89.680
745.0,89.952
746.0,89.943
747.0,XXX.XXX
748.0,XXX.XXX
749.0,XXX.XXX
750.0,XXX.XXX
