Batch	scan006
Instrument ID	084303
Data Mode	%T
Sample	Sample001
Cycle	Cycle01
Date Collected	19/02/2025
Time Collected	01:23:59
Entries	Data Points
nm	%T
390.0	XXX.XXX
391.0	XXX.XXX
392.0	XXX.XXX
393.0	XXX.XXX
394.0	75.661
395.0	75.124
396.0	72.342
397.0	70.186
398.0	70.472
399.0	72.034
400.0	73.223
401.0	72.296
402.0	73.425
403.0	75.956
404.0	73.854
405.0	72.449
406.0	74.532
407.0	74.971
408.0	74.578
409.0	76.408
410.0	78.535
411.0	77.319
412.0	74.778
413.0	75.239
414.0	77.356
415.0	77.537
416.0	76.805
417.0	77.218
418.0	77.784
419.0	78.506
420.0	79.748
421.0	80.116
422.0	79.072
423.0	79.185
424.0	81.651
425.0	82.973
426.0	82.270
427.0	82.060
428.0	82.783
429.0	83.567
430.0	83.006
431.0	81.761
432.0	82.820
433.0	84.451
434.0	84.037
435.0	83.788
436.0	84.188
437.0	84.309
438.0	84.684
439.0	84.874
440.0	84.844
441.0	85.041
442.0	84.914
443.0	84.476
444.0	85.436
445.0	87.381
446.0	87.386
447.0	86.033
448.0	85.186
449.0	84.898
450.0	85.287
451.0	85.654
452.0	85.494
453.0	85.238
454.0	85.388
455.0	86.259
456.0	87.643
457.0	88.955
458.0	88.533
459.0	86.917
460.0	87.314
461.0	88.371
462.0	87.361
463.0	86.806
464.0	88.032
465.0	88.667
466.0	88.903
467.0	89.839
468.0	89.675
469.0	88.322
470.0	87.937
471.0	88.660
472.0	89.687
473.0	90.133
474.0	90.281
475.0	91.171
476.0	91.527
477.0	91.000
478.0	90.751
479.0	90.004
480.0	89.193
481.0	90.229
482.0	91.333
483.0	90.527
484.0	90.067
485.0	91.011
486.0	91.322
487.0	90.517
488.0	90.285
489.0	91.180
490.0	91.741
491.0	91.221
492.0	90.673
493.0	91.164
494.0	91.889
495.0	91.354
496.0	91.002
497.0	92.462
498.0	93.749
499.0	93.500
500.0	92.521
501.0	91.817
502.0	92.341
503.0	93.207
504.0	93.155
505.0	92.763
506.0	92.516
507.0	92.531
508.0	92.891
509.0	93.140
510.0	93.090
511.0	92.952
512.0	92.886
513.0	92.937
514.0	92.720
515.0	92.435
516.0	92.867
517.0	93.418
518.0	93.320
519.0	93.081
520.0	93.208
521.0	93.726
522.0	94.178
523.0	94.100
524.0	93.843
525.0	93.795
526.0	93.863
527.0	93.814
528.0	93.854
529.0	94.408
530.0	94.924
531.0	94.719
532.0	94.371
533.0	94.587
534.0	94.869
535.0	94.818
536.0	94.699
537.0	94.403
538.0	94.274
539.0	94.679
540.0	95.048
541.0	95.224
542.0	95.109
543.0	94.691
544.0	94.722
545.0	94.853
546.0	94.594
547.0	94.697
548.0	94.983
549.0	95.013
550.0	95.215
551.0	95.416
552.0	95.457
553.0	95.681
554.0	95.603
555.0	94.815
556.0	94.483
557.0	95.328
558.0	96.178
559.0	96.216
560.0	95.992
561.0	95.872
562.0	95.401
563.0	94.654
564.0	94.595
565.0	95.210
566.0	95.626
567.0	95.889
568.0	96.227
569.0	96.172
570.0	95.677
571.0	95.286
572.0	95.452
573.0	95.682
574.0	95.486
575.0	95.927
576.0	96.439
577.0	95.727
578.0	95.455
579.0	96.320
580.0	96.941
581.0	96.838
582.0	96.505
583.0	96.589
584.0	96.810
585.0	96.751
586.0	96.771
587.0	96.901
588.0	96.949
589.0	96.919
590.0	96.856
591.0	96.855
592.0	96.809
593.0	96.668
594.0	96.689
595.0	96.811
596.0	96.803
597.0	96.951
598.0	97.202
599.0	97.115
600.0	97.033
601.0	97.121
602.0	97.081
603.0	96.954
604.0	96.880
605.0	97.045
606.0	97.250
607.0	97.088
608.0	96.959
609.0	97.165
610.0	97.162
611.0	97.016
612.0	97.307
613.0	97.725
614.0	97.681
615.0	97.467
616.0	97.493
617.0	97.285
618.0	96.841
619.0	96.919
620.0	97.190
621.0	97.042
622.0	96.948
623.0	97.108
624.0	97.180
625.0	97.236
626.0	97.267
627.0	97.238
628.0	97.377
629.0	97.486
630.0	97.401
631.0	97.346
632.0	97.276
633.0	97.189
634.0	97.228
635.0	97.266
636.0	97.270
637.0	97.415
638.0	97.552
639.0	97.413
640.0	97.209
641.0	97.189
642.0	97.428
643.0	97.674
644.0	97.451
645.0	97.237
646.0	97.478
647.0	97.572
648.0	97.400
649.0	97.463
650.0	97.650
651.0	97.602
652.0	97.421
653.0	97.402
654.0	97.602
655.0	97.739
656.0	97.705
657.0	97.465
658.0	97.048
659.0	97.119
660.0	97.703
661.0	97.832
662.0	97.499
663.0	97.514
664.0	97.817
665.0	97.837
666.0	97.647
667.0	97.558
668.0	97.602
669.0	97.712
670.0	97.766
671.0	97.893
672.0	98.225
673.0	98.182
674.0	97.592
675.0	97.409
676.0	97.769
677.0	97.919
678.0	97.950
679.0	97.909
680.0	97.678
681.0	97.678
682.0	97.800
683.0	97.814
684.0	97.880
685.0	97.923
686.0	97.716
687.0	97.503
688.0	97.727
689.0	97.941
690.0	97.888
691.0	97.982
692.0	98.051
693.0	98.070
694.0	98.287
695.0	98.396
696.0	98.198
697.0	98.001
698.0	98.141
699.0	98.378
700.0	98.211
701.0	97.918
702.0	97.843
703.0	97.716
704.0	97.619
705.0	97.778
706.0	97.927
707.0	97.850
708.0	97.837
709.0	98.054
710.0	98.012
711.0	97.710
712.0	97.602
713.0	97.632
714.0	97.845
715.0	98.146
716.0	98.278
717.0	98.392
718.0	98.189
719.0	97.727
720.0	97.816
721.0	97.990
722.0	97.690
723.0	97.644
724.0	98.006
725.0	98.187
726.0	98.132
727.0	98.176
728.0	98.371
729.0	98.456
730.0	98.243
731.0	98.020
732.0	98.105
733.0	98.191
734.0	98.130
735.0	98.164
736.0	98.119
737.0	98.045
738.0	98.189
739.0	98.139
740.0	98.051
741.0	98.418
742.0	98.632
743.0	98.257
744.0	97.815
745.0	97.568
746.0	97.415
747.0	XXX.XXX
748.0	XXX.XXX
749.0	XXX.XXX
750.0	XXX.XXX
