Batch	scan002
Instrument ID	084303
Data Mode	%T
Sample	Sample001
Cycle	Cycle01
Date Collected	17/01/2025
Time Collected	01:36:36
Entries	Data Points
nm	%T
390.0	XXX.XXX
391.0	XXX.XXX
392.0	XXX.XXX
393.0	XXX.XXX
394.0	75.654
395.0	75.661
396.0	76.301
397.0	76.991
398.0	76.758
399.0	77.756
400.0	79.461
401.0	78.852
402.0	76.472
403.0	74.194
404.0	74.557
405.0	77.812
406.0	78.057
407.0	74.673
408.0	74.606
409.0	76.539
410.0	75.406
411.0	74.587
412.0	75.602
413.0	75.339
414.0	74.051
415.0	73.767
416.0	74.832
417.0	74.663
418.0	73.044
419.0	72.718
420.0	73.041
421.0	73.163
422.0	73.999
423.0	73.821
424.0	71.044
425.0	69.890
426.0	72.725
427.0	74.570
428.0	74.129
429.0	74.517
430.0	73.710
431.0	70.983
432.0	71.354
433.0	74.120
434.0	74.993
435.0	74.742
436.0	73.975
437.0	72.816
438.0	73.060
439.0	74.171
440.0	74.536
441.0	73.784
442.0	72.451
443.0	72.218
444.0	73.557
445.0	74.669
446.0	74.670
447.0	74.563
448.0	75.030
449.0	75.394
450.0	74.670
451.0	73.810
452.0	74.973
453.0	76.798
454.0	76.297
455.0	74.548
456.0	73.816
457.0	73.977
458.0	74.410
459.0	75.069
460.0	75.946
461.0	76.760
462.0	77.283
463.0	77.575
464.0	77.232
465.0	76.376
466.0	76.415
467.0	77.331
468.0	77.692
469.0	77.534
470.0	77.601
471.0	78.150
472.0	79.187
473.0	79.483
474.0	78.420
475.0	77.791
476.0	78.392
477.0	78.740
478.0	78.278
479.0	78.193
480.0	78.900
481.0	79.491
482.0	79.442
483.0	79.414
484.0	79.610
485.0	79.397
486.0	79.155
487.0	79.434
488.0	80.374
489.0	81.330
490.0	81.244
491.0	80.886
492.0	81.136
493.0	81.303
494.0	81.087
495.0	80.998
496.0	81.128
497.0	81.293
498.0	81.682
499.0	82.352
500.0	82.470
501.0	82.054
502.0	82.375
503.0	82.995
504.0	82.897
505.0	82.817
506.0	83.132
507.0	83.131
508.0	82.944
509.0	83.041
510.0	83.063
511.0	82.977
512.0	83.268
513.0	83.665
514.0	83.616
515.0	83.637
516.0	84.081
517.0	84.145
518.0	83.932
519.0	84.009
520.0	83.922
521.0	83.990
522.0	84.542
523.0	84.595
524.0	84.160
525.0	84.251
526.0	84.820
527.0	85.048
528.0	84.848
529.0	84.937
530.0	85.155
531.0	84.960
532.0	84.890
533.0	85.236
534.0	85.573
535.0	85.593
536.0	85.612
537.0	85.976
538.0	86.189
539.0	86.255
540.0	86.241
541.0	85.796
542.0	85.575
543.0	85.652
544.0	85.631
545.0	86.032
546.0	86.371
547.0	86.053
548.0	85.829
549.0	85.931
550.0	86.329
551.0	87.041
552.0	87.377
553.0	87.209
554.0	86.784
555.0	86.243
556.0	86.341
557.0	87.063
558.0	87.227
559.0	86.773
560.0	86.675
561.0	86.873
562.0	87.020
563.0	87.368
564.0	87.846
565.0	88.016
566.0	87.602
567.0	87.106
568.0	87.262
569.0	87.648
570.0	87.574
571.0	87.526
572.0	87.906
573.0	87.976
574.0	87.086
575.0	86.146
576.0	86.844
577.0	88.239
578.0	88.060
579.0	87.156
580.0	87.083
581.0	87.366
582.0	87.673
583.0	87.990
584.0	88.015
585.0	87.951
586.0	87.965
587.0	87.877
588.0	87.809
589.0	87.862
590.0	87.908
591.0	88.013
592.0	88.050
593.0	87.792
594.0	87.623
595.0	87.777
596.0	88.053
597.0	88.477
598.0	88.586
599.0	88.148
600.0	88.081
601.0	88.373
602.0	88.370
603.0	88.401
604.0	88.540
605.0	88.517
606.0	88.511
607.0	88.627
608.0	88.577
609.0	88.240
610.0	88.201
611.0	88.673
612.0	89.016
613.0	88.990
614.0	88.888
615.0	88.749
616.0	88.557
617.0	88.582
618.0	88.757
619.0	88.719
620.0	88.549
621.0	88.603
622.0	88.796
623.0	88.922
624.0	89.176
625.0	89.309
626.0	88.997
627.0	88.755
628.0	88.952
629.0	89.232
630.0	89.185
631.0	88.943
632.0	89.016
633.0	89.329
634.0	89.276
635.0	88.972
636.0	89.018
637.0	89.356
638.0	89.459
639.0	89.203
640.0	89.038
641.0	89.176
642.0	89.220
643.0	89.065
644.0	89.112
645.0	89.415
646.0	89.680
647.0	89.609
648.0	89.370
649.0	89.539
650.0	89.751
651.0	89.535
652.0	89.481
653.0	89.680
654.0	89.506
655.0	89.046
656.0	88.963
657.0	89.266
658.0	89.538
659.0	89.594
660.0	89.458
661.0	89.520
662.0	89.777
663.0	89.845
664.0	89.810
665.0	89.754
666.0	89.688
667.0	89.663
668.0	89.607
669.0	89.667
670.0	89.784
671.0	89.620
672.0	89.452
673.0	89.650
674.0	89.971
675.0	90.152
676.0	90.087
677.0	89.860
678.0	89.837
679.0	89.993
680.0	89.989
681.0	89.883
682.0	89.816
683.0	89.761
684.0	89.696
685.0	89.666
686.0	89.863
687.0	90.149
688.0	90.089
689.0	89.882
690.0	90.012
691.0	90.210
692.0	90.144
693.0	90.123
694.0	90.239
695.0	90.309
696.0	90.244
697.0	90.047
698.0	90.074
699.0	90.303
700.0	90.309
701.0	90.127
702.0	90.046
703.0	90.150
704.0	90.225
705.0	90.150
706.0	89.989
707.0	89.893
708.0	89.945
709.0	89.980
710.0	90.033
711.0	90.219
712.0	90.454
713.0	90.598
714.0	90.550
715.0	90.474
716.0	90.486
717.0	90.442
718.0	90.286
719.0	90.123
720.0	90.029
721.0	89.978
722.0	89.933
723.0	89.894
724.0	90.084
725.0	90.666
726.0	90.993
727.0	90.689
728.0	90.424
729.0	90.457
730.0	90.514
731.0	90.449
732.0	90.378
733.0	90.426
734.0	90.217
735.0	89.860
736.0	90.029
737.0	90.516
738.0	90.772
739.0	90.737
740.0	90.370
741.0	90.031
742.0	90.160
743.0	90.421
744.0	90.495
745.0	90.302
746.0	89.921
747.0	XXX.XXX
748.0	XXX.XXX
749.0	XXX.XXX
750.0	XXX.XXX
