,     Angle,       PSD
0,5.0,2061
1,5.04003,2045
2,5.08006,2050
3,5.1201,2000
4,5.16013,2009
5,5.20016,2067
6,5.24019,2047
7,5.28023,2066
8,5.32026,2077
9,5.36029,1933
10,5.40032,2027
11,5.44035,1788
12,5.48039,1779
13,5.52042,1808
14,5.56045,1803
15,5.60048,1789
16,5.64052,1759
17,5.68055,1847
18,5.72058,1717
19,5.76061,1806
20,5.80064,1752
21,5.84068,1776
22,5.88071,1831
23,5.92074,1846
24,5.96077,1701
25,6.0008,1691
26,6.04084,1642
27,6.08087,1633
28,6.1209,1689
29,6.16093,1700
30,6.20097,1644
31,6.241,1641
32,6.28103,1659
33,6.32106,1633
34,6.36109,1653
35,6.40113,1679
36,6.44116,1593
37,6.48119,1550
38,6.52122,1604
39,6.56126,1555
40,6.60129,1451
41,6.64132,1491
42,6.68135,1534
43,6.72138,1461
44,6.76142,1498
45,6.80145,1460
46,6.84148,1417
47,6.88151,1466
48,6.92155,1475
49,6.96158,1511
50,7.00161,1380
51,7.04164,1493
52,7.08167,1501
53,7.12171,1437
54,7.16174,1415
55,7.20177,1497
56,7.2418,1340
57,7.28184,1401
58,7.32187,1398
59,7.3619,1403
60,7.40193,1367
61,7.44196,1353
62,7.482,1411
63,7.52203,1360
64,7.56206,1331
65,7.60209,1353
66,7.64213,1322
67,7.68216,1320
68,7.72219,1431
69,7.76222,1340
70,7.80225,1382
71,7.84229,1333
72,7.88232,1441
73,7.92235,1341
74,7.96238,1357
75,8.00241,1350
76,8.04245,1395
77,8.08248,1456
78,8.12251,1395
79,8.16254,1424
80,8.20258,1410
81,8.24261,1481
82,8.28264,1677
83,8.32267,1732
84,8.3627,1845
85,8.40274,1822
86,8.44277,1610
87,8.4828,1435
88,8.52283,1404
89,8.56287,1478
90,8.6029,1456
91,8.64293,1473
92,8.68296,1483
93,8.72299,1386
94,8.76303,1313
95,8.80306,1343
96,8.84309,1333
97,8.88312,1419
98,8.92316,1316
99,8.96319,1300
100,9.00322,1347
101,9.04325,1386
102,9.08328,1382
103,9.12332,1381
104,9.16335,1385
105,9.20338,1352
106,9.24341,1339
107,9.28345,1391
108,9.32348,1406
109,9.36351,1279
110,9.40354,1389
111,9.44357,1311
112,9.48361,1396
113,9.52364,1353
114,9.56367,1389
115,9.6037,1328
116,9.64374,1357
117,9.68377,1377
118,9.7238,1382
119,9.76383,1408
120,9.80386,1444
121,9.8439,1365
122,9.88393,1427
123,9.92396,1334
124,9.96399,1308
125,10.004,1370
126,10.0441,1291
127,10.0841,1329
128,10.1241,1382
129,10.1642,1362
130,10.2042,1386
131,10.2442,1341
132,10.2843,1369
133,10.3243,1440
134,10.3643,1393
135,10.4043,1474
136,10.4444,1384
137,10.4844,1450
138,10.5244,1438
139,10.5645,1456
140,10.6045,1467
141,10.6445,1549
142,10.6846,1508
143,10.7246,1538
144,10.7646,1598
145,10.8047,1605
146,10.8447,1679
147,10.8847,1657
148,10.9248,1537
149,10.9648,1593
150,11.0048,1601
151,11.0449,1597
152,11.0849,1657
153,11.1249,1640
154,11.165,1653
155,11.205,1816
156,11.245,1811
157,11.2851,1852
158,11.3251,1986
159,11.3651,1973
160,11.4052,2124
161,11.4452,2234
162,11.4852,2708
163,11.5252,3076
164,11.5653,3919
165,11.6053,5818
166,11.6453,8793
167,11.6854,14217
168,11.7254,18584
169,11.7654,21161
170,11.8055,23352
171,11.8455,21233
172,11.8855,16920
173,11.9256,19422
174,11.9656,27072
175,12.0056,32541
176,12.0457,27195
177,12.0857,14239
178,12.1257,5755
179,12.1658,3243
180,12.2058,2394
181,12.2458,2163
182,12.2859,2085
183,12.3259,2029
184,12.3659,2058
185,12.406,2119
186,12.446,2398
187,12.486,2738
188,12.5261,2798
189,12.5661,2920
190,12.6061,2386
191,12.6462,2008
192,12.6862,1846
193,12.7262,1860
194,12.7662,1822
195,12.8063,1780
196,12.8463,1803
197,12.8863,1803
198,12.9264,1763
199,12.9664,1791
200,13.0064,1832
201,13.0465,1764
202,13.0865,1807
203,13.1265,1899
204,13.1666,1794
205,13.2066,1797
206,13.2466,1788
207,13.2867,1710
208,13.3267,1729
209,13.3667,1814
210,13.4068,1782
211,13.4468,1824
212,13.4868,1878
213,13.5269,1798
214,13.5669,1826
215,13.6069,1885
216,13.647,1875
217,13.687,1895
218,13.727,1842
219,13.7671,1942
220,13.8071,1916
221,13.8471,1924
222,13.8871,1893
223,13.9272,1931
224,13.9672,1926
225,14.0072,1861
226,14.0473,1966
227,14.0873,2034
228,14.1273,1996
229,14.1674,2062
230,14.2074,2121
231,14.2474,2094
232,14.2875,2042
233,14.3275,2083
234,14.3675,2271
235,14.4076,2458
236,14.4476,2485
237,14.4876,2495
238,14.5277,2472
239,14.5677,2318
240,14.6077,2243
241,14.6478,2267
242,14.6878,2232
243,14.7278,2151
244,14.7679,2165
245,14.8079,2107
246,14.8479,2160
247,14.888,2175
248,14.928,2124
249,14.968,2224
250,15.008,2091
251,15.0481,2157
252,15.0881,2129
253,15.1281,2177
254,15.1682,2081
255,15.2082,1986
256,15.2482,2106
257,15.2883,2051
258,15.3283,2016
259,15.3683,2132
260,15.4084,2025
261,15.4484,2020
262,15.4884,1945
263,15.5285,2012
264,15.5685,2005
265,15.6085,2035
266,15.6486,2082
267,15.6886,2090
268,15.7286,2143
269,15.7687,2210
270,15.8087,2199
271,15.8487,2206
272,15.8888,2053
273,15.9288,1993
274,15.9688,1966
275,16.0089,1929
276,16.0489,1990
277,16.0889,1876
278,16.129,1973
279,16.169,1900
280,16.209,1987
281,16.249,1966
282,16.2891,1955
283,16.3291,1907
284,16.3691,1893
285,16.4092,1885
286,16.4492,1824
287,16.4892,1809
288,16.5293,1854
289,16.5693,1774
290,16.6093,1856
291,16.6494,1820
292,16.6894,1737
293,16.7294,1857
294,16.7695,1795
295,16.8095,1753
296,16.8495,1750
297,16.8896,1809
298,16.9296,1778
299,16.9696,1739
300,17.0097,1679
301,17.0497,1646
302,17.0897,1672
303,17.1298,1629
304,17.1698,1535
305,17.2098,1606
306,17.2499,1596
307,17.2899,1559
308,17.3299,1570
309,17.3699,1482
310,17.41,1521
311,17.45,1505
312,17.49,1542
313,17.5301,1505
314,17.5701,1461
315,17.6101,1513
316,17.6502,1481
317,17.6902,1379
318,17.7302,1415
319,17.7703,1464
320,17.8103,1440
321,17.8503,1379
322,17.8904,1421
323,17.9304,1350
324,17.9704,1410
325,18.0105,1351
326,18.0505,1341
327,18.0905,1354
328,18.1306,1284
329,18.1706,1223
330,18.2106,1310
331,18.2507,1280
332,18.2907,1275
333,18.3307,1258
334,18.3708,1301
335,18.4108,1301
336,18.4508,1277
337,18.4909,1336
338,18.5309,1314
339,18.5709,1332
340,18.6109,1253
341,18.651,1236
342,18.691,1222
343,18.731,1331
344,18.7711,1206
345,18.8111,1261
346,18.8511,1285
347,18.8912,1247
348,18.9312,1335
349,18.9712,1310
350,19.0113,1248
351,19.0513,1253
352,19.0913,1251
353,19.1314,1312
354,19.1714,1285
355,19.2114,1290
356,19.2515,1281
357,19.2915,1309
358,19.3315,1237
359,19.3716,1308
360,19.4116,1253
361,19.4516,1258
362,19.4917,1328
363,19.5317,1351
364,19.5717,1344
365,19.6118,1425
366,19.6518,1510
367,19.6918,1578
368,19.7318,1650
369,19.7719,1728
370,19.8119,1639
371,19.8519,1595
372,19.892,1440
373,19.932,1372
374,19.972,1452
375,20.0121,1428
376,20.0521,1442
377,20.0921,1410
378,20.1322,1405
379,20.1722,1440
380,20.2122,1479
381,20.2523,1550
382,20.2923,1577
383,20.3323,1593
384,20.3724,1566
385,20.4124,1743
386,20.4524,1942
387,20.4925,2129
388,20.5325,2320
389,20.5725,2547
390,20.6126,2633
391,20.6526,2464
392,20.6926,2149
393,20.7327,1935
394,20.7727,1897
395,20.8127,2067
396,20.8528,2386
397,20.8928,3050
398,20.9328,3567
399,20.9728,4014
400,21.0129,3979
401,21.0529,3113
402,21.0929,2438
403,21.133,2065
404,21.173,1871
405,21.213,1964
406,21.2531,1874
407,21.2931,2019
408,21.3331,1989
409,21.3732,1939
410,21.4132,2169
411,21.4532,2222
412,21.4933,2402
413,21.5333,2577
414,21.5733,2678
415,21.6134,2610
416,21.6534,2516
417,21.6934,2611
418,21.7335,2562
419,21.7735,2606
420,21.8135,2757
421,21.8536,2894
422,21.8936,3038
423,21.9336,3060
424,21.9737,3121
425,22.0137,2918
426,22.0537,2946
427,22.0937,2899
428,22.1338,3073
429,22.1738,2896
430,22.2138,3072
431,22.2539,3159
432,22.2939,3212
433,22.3339,3282
434,22.374,3305
435,22.414,3363
436,22.454,3403
437,22.4941,3425
438,22.5341,3388
439,22.5741,3485
440,22.6142,3438
441,22.6542,3454
442,22.6942,3568
443,22.7343,3461
444,22.7743,3338
445,22.8143,3286
446,22.8544,3358
447,22.8944,3227
448,22.9344,3149
449,22.9745,3062
450,23.0145,2926
451,23.0545,2872
452,23.0946,2832
453,23.1346,2785
454,23.1746,2619
455,23.2147,2541
456,23.2547,2589
457,23.2947,2470
458,23.3347,2483
459,23.3748,2453
460,23.4148,2510
461,23.4548,2477
462,23.4949,2679
463,23.5349,2648
464,23.5749,2657
465,23.615,2757
466,23.655,2917
467,23.695,3101
468,23.7351,2933
469,23.7751,2573
470,23.8151,2577
471,23.8552,2387
472,23.8952,2300
473,23.9352,2487
474,23.9753,2653
475,24.0153,2935
476,24.0553,3445
477,24.0954,3697
478,24.1354,3545
479,24.1754,2949
480,24.2155,2189
481,24.2555,1691
482,24.2955,1520
483,24.3356,1384
484,24.3756,1365
485,24.4156,1302
486,24.4556,1341
487,24.4957,1232
488,24.5357,1203
489,24.5757,1221
490,24.6158,1236
491,24.6558,1180
492,24.6958,1127
493,24.7359,1100
494,24.7759,1150
495,24.8159,1159
496,24.856,1085
497,24.896,1169
498,24.936,1157
499,24.9761,1069
500,25.0161,1132
501,25.0561,1168
502,25.0962,1190
503,25.1362,1146
504,25.1762,1157
505,25.2163,1157
506,25.2563,1195
507,25.2963,1226
508,25.3364,1222
509,25.3764,1245
510,25.4164,1179
511,25.4565,1242
512,25.4965,1317
513,25.5365,1312
514,25.5766,1430
515,25.6166,1515
516,25.6566,1514
517,25.6966,1629
518,25.7367,1662
519,25.7767,1660
520,25.8167,1805
521,25.8568,1928
522,25.8968,2173
523,25.9368,2526
524,25.9769,2756
525,26.0169,3034
526,26.0569,2954
527,26.097,2811
528,26.137,2629
529,26.177,2569
530,26.2171,2943
531,26.2571,3624
532,26.2971,4687
533,26.3372,5829
534,26.3772,7228
535,26.4172,8355
536,26.4573,8816
537,26.4973,8047
538,26.5373,6729
539,26.5774,5344
540,26.6174,4062
541,26.6574,3171
542,26.6975,2696
543,26.7375,2422
544,26.7775,2309
545,26.8175,2498
546,26.8576,2858
547,26.8976,3458
548,26.9376,4544
549,26.9777,5598
550,27.0177,6983
551,27.0577,7735
552,27.0978,8195
553,27.1378,7634
554,27.1778,6311
555,27.2179,4803
556,27.2579,3506
557,27.2979,2591
558,27.338,1939
559,27.378,1629
560,27.418,1474
561,27.4581,1350
562,27.4981,1301
563,27.5381,1284
564,27.5782,1206
565,27.6182,1259
566,27.6582,1279
567,27.6983,1193
568,27.7383,1134
569,27.7783,1139
570,27.8184,1159
571,27.8584,1189
572,27.8984,1172
573,27.9385,1182
574,27.9785,1208
575,28.0185,1272
576,28.0585,1283
577,28.0986,1265
578,28.1386,1360
579,28.1786,1465
580,28.2187,1594
581,28.2587,1741
582,28.2987,2063
583,28.3388,2332
584,28.3788,2680
585,28.4188,2722
586,28.4589,2869
587,28.4989,2715
588,28.5389,2595
589,28.579,2426
590,28.619,2109
591,28.659,1936
592,28.6991,1722
593,28.7391,1498
594,28.7791,1280
595,28.8192,1275
596,28.8592,1207
597,28.8992,1201
598,28.9393,1140
599,28.9793,1122
600,29.0193,1133
601,29.0594,1226
602,29.0994,1196
603,29.1394,1336
604,29.1794,1510
605,29.2195,1730
606,29.2595,2170
607,29.2995,2743
608,29.3396,2898
609,29.3796,2604
610,29.4196,2094
611,29.4597,1773
612,29.4997,1683
613,29.5397,1632
614,29.5798,1520
615,29.6198,1518
616,29.6598,1571
617,29.6999,1411
618,29.7399,1322
619,29.7799,1276
620,29.82,1152
621,29.86,1079
622,29.9,1064
623,29.9401,998
624,29.9801,966
625,30.0201,938
626,30.0602,962
627,30.1002,978
628,30.1402,1109
629,30.1803,1111
630,30.2203,1113
631,30.2603,1137
632,30.3004,1209
633,30.3404,1287
634,30.3804,1238
635,30.4204,1392
636,30.4605,1543
637,30.5005,1655
638,30.5405,1574
639,30.5806,1640
640,30.6206,1431
641,30.6606,1157
642,30.7007,1029
643,30.7407,953
644,30.7807,949
645,30.8208,941
646,30.8608,914
647,30.9008,925
648,30.9409,956
649,30.9809,938
650,31.0209,977
651,31.061,949
652,31.101,980
653,31.141,898
654,31.1811,904
655,31.2211,912
656,31.2611,995
657,31.3012,989
658,31.3412,1036
659,31.3812,1000
660,31.4213,1023
661,31.4613,1048
662,31.5013,961
663,31.5413,1006
664,31.5814,906
665,31.6214,895
666,31.6614,836
667,31.7015,904
668,31.7415,863
669,31.7815,849
670,31.8216,813
671,31.8616,843
672,31.9016,809
673,31.9417,818
674,31.9817,797
675,32.0217,809
676,32.0618,797
677,32.1018,826
678,32.1418,875
679,32.1819,844
680,32.2219,903
681,32.2619,919
682,32.302,913
683,32.342,867
684,32.382,895
685,32.4221,921
686,32.4621,915
687,32.5021,985
688,32.5422,978
689,32.5822,1009
690,32.6222,962
691,32.6623,1023
692,32.7023,969
693,32.7423,927
694,32.7823,1017
695,32.8224,966
696,32.8624,874
697,32.9024,891
698,32.9425,890
699,32.9825,914
700,33.0225,867
701,33.0626,911
702,33.1026,887
703,33.1426,901
704,33.1827,906
705,33.2227,927
706,33.2627,888
707,33.3028,914
708,33.3428,872
709,33.3828,873
710,33.4229,987
711,33.4629,913
712,33.5029,945
713,33.543,1050
714,33.583,1021
715,33.623,1044
716,33.6631,1009
717,33.7031,938
718,33.7431,1013
719,33.7832,1026
720,33.8232,1015
721,33.8632,1017
722,33.9032,951
723,33.9433,1051
724,33.9833,1086
725,34.0233,1155
726,34.0634,1299
727,34.1034,1345
728,34.1434,1571
729,34.1835,1619
730,34.2235,1547
731,34.2635,1489
732,34.3036,1289
733,34.3436,1270
734,34.3836,1308
735,34.4237,1334
736,34.4637,1359
737,34.5037,1267
738,34.5438,1168
739,34.5838,1115
740,34.6238,1026
741,34.6639,963
742,34.7039,1070
743,34.7439,1011
744,34.784,996
745,34.824,889
746,34.864,911
747,34.9041,953
748,34.9441,871
749,34.9841,895
750,35.0241,890
751,35.0642,898
752,35.1042,899
753,35.1442,985
754,35.1843,874
755,35.2243,871
756,35.2643,835
757,35.3044,891
758,35.3444,875
759,35.3844,851
760,35.4245,862
761,35.4645,918
762,35.5045,934
763,35.5446,907
764,35.5846,945
765,35.6246,893
766,35.6647,942
767,35.7047,918
768,35.7447,1009
769,35.7848,1025
770,35.8248,1053
771,35.8648,1013
772,35.9049,935
773,35.9449,985
774,35.9849,923
775,36.025,905
776,36.065,910
777,36.105,922
778,36.1451,913
779,36.1851,903
780,36.2251,971
781,36.2651,983
782,36.3052,1046
783,36.3452,1061
784,36.3852,1176
785,36.4253,1306
786,36.4653,1328
787,36.5053,1340
788,36.5454,1289
789,36.5854,1128
790,36.6254,1040
791,36.6655,977
792,36.7055,1007
793,36.7455,967
794,36.7856,919
795,36.8256,966
796,36.8656,1071
797,36.9057,1008
798,36.9457,1065
799,36.9857,1088
800,37.0258,1020
801,37.0658,969
802,37.1058,968
803,37.1459,967
804,37.1859,1001
805,37.2259,875
806,37.266,835
807,37.306,834
808,37.346,727
809,37.386,736
810,37.4261,724
811,37.4661,752
812,37.5061,724
813,37.5462,752
814,37.5862,747
815,37.6262,717
816,37.6663,744
817,37.7063,736
818,37.7463,730
819,37.7864,683
820,37.8264,695
821,37.8664,696
822,37.9065,721
823,37.9465,758
824,37.9865,806
825,38.0266,776
826,38.0666,749
827,38.1066,837
828,38.1467,821
829,38.1867,883
830,38.2267,863
831,38.2668,846
832,38.3068,877
833,38.3468,813
834,38.3869,750
835,38.4269,766
836,38.4669,741
837,38.507,778
838,38.547,775
839,38.587,728
840,38.627,805
841,38.6671,761
842,38.7071,801
843,38.7471,813
844,38.7872,760
845,38.8272,791
846,38.8672,839
847,38.9073,780
848,38.9473,811
849,38.9873,768
850,39.0274,815
851,39.0674,807
852,39.1074,823
853,39.1475,782
854,39.1875,809
855,39.2275,803
856,39.2676,851
857,39.3076,832
858,39.3476,797
859,39.3877,809
860,39.4277,822
861,39.4677,772
862,39.5078,782
863,39.5478,798
864,39.5878,786
865,39.6279,846
866,39.6679,857
867,39.7079,851
868,39.7479,901
869,39.788,808
870,39.828,851
871,39.868,811
872,39.9081,774
873,39.9481,720
874,39.9881,761
875,40.0282,766
876,40.0682,746
877,40.1082,745
878,40.1483,744
879,40.1883,772
880,40.2283,764
881,40.2684,730
882,40.3084,672
883,40.3484,709
884,40.3885,718
885,40.4285,723
886,40.4685,700
887,40.5086,703
888,40.5486,724
889,40.5886,768
890,40.6287,758
891,40.6687,721
892,40.7087,771
893,40.7488,788
894,40.7888,818
895,40.8288,784
896,40.8689,833
897,40.9089,780
898,40.9489,843
899,40.9889,862
900,41.029,799
901,41.069,819
902,41.109,816
903,41.1491,822
904,41.1891,822
905,41.2291,843
906,41.2692,865
907,41.3092,881
908,41.3492,902
909,41.3893,932
910,41.4293,1003
911,41.4693,998
912,41.5094,1116
913,41.5494,1216
914,41.5894,1193
915,41.6295,1265
916,41.6695,1116
917,41.7095,1018
918,41.7496,909
919,41.7896,989
920,41.8296,892
921,41.8697,923
922,41.9097,895
923,41.9497,890
924,41.9898,990
925,42.0298,1006
926,42.0698,1014
927,42.1098,987
928,42.1499,922
929,42.1899,830
930,42.2299,797
931,42.27,751
932,42.31,713
933,42.35,688
934,42.3901,697
