,     Angle,       PSD
0,5.0,1980
1,5.04003,1924
2,5.08006,1869
3,5.1201,1939
4,5.16013,1780
5,5.20016,1836
6,5.24019,1828
7,5.28023,1822
8,5.32026,1833
9,5.36029,1742
10,5.40032,1831
11,5.44035,1851
12,5.48039,1733
13,5.52042,1689
14,5.56045,1741
15,5.60048,1645
16,5.64052,1697
17,5.68055,1655
18,5.72058,1692
19,5.76061,1581
20,5.80064,1679
21,5.84068,1595
22,5.88071,1628
23,5.92074,1671
24,5.96077,1629
25,6.0008,1582
26,6.04084,1538
27,6.08087,1542
28,6.1209,1559
29,6.16093,1580
30,6.20097,1549
31,6.241,1517
32,6.28103,1487
33,6.32106,1473
34,6.36109,1514
35,6.40113,1502
36,6.44116,1523
37,6.48119,1504
38,6.52122,1472
39,6.56126,1455
40,6.60129,1435
41,6.64132,1486
42,6.68135,1480
43,6.72138,1420
44,6.76142,1428
45,6.80145,1406
46,6.84148,1431
47,6.88151,1489
48,6.92155,1389
49,6.96158,1398
50,7.00161,1342
51,7.04164,1392
52,7.08167,1326
53,7.12171,1355
54,7.16174,1409
55,7.20177,1426
56,7.2418,1370
57,7.28184,1403
58,7.32187,1320
59,7.3619,1238
60,7.40193,1349
61,7.44196,1379
62,7.482,1245
63,7.52203,1397
64,7.56206,1277
65,7.60209,1349
66,7.64213,1373
67,7.68216,1354
68,7.72219,1338
69,7.76222,1293
70,7.80225,1247
71,7.84229,1370
72,7.88232,1346
73,7.92235,1311
74,7.96238,1238
75,8.00241,1289
76,8.04245,1286
77,8.08248,1282
78,8.12251,1319
79,8.16254,1218
80,8.20258,1248
81,8.24261,1319
82,8.28264,1295
83,8.32267,1246
84,8.3627,1290
85,8.40274,1229
86,8.44277,1279
87,8.4828,1218
88,8.52283,1239
89,8.56287,1263
90,8.6029,1297
91,8.64293,1334
92,8.68296,1269
93,8.72299,1203
94,8.76303,1255
95,8.80306,1261
96,8.84309,1253
97,8.88312,1288
98,8.92316,1254
99,8.96319,1288
100,9.00322,1231
101,9.04325,1266
102,9.08328,1297
103,9.12332,1265
104,9.16335,1320
105,9.20338,1317
106,9.24341,1277
107,9.28345,1204
108,9.32348,1275
109,9.36351,1249
110,9.40354,1330
111,9.44357,1300
112,9.48361,1248
113,9.52364,1273
114,9.56367,1291
115,9.6037,1271
116,9.64374,1289
117,9.68377,1341
118,9.7238,1312
119,9.76383,1211
120,9.80386,1275
121,9.8439,1329
122,9.88393,1294
123,9.92396,1332
124,9.96399,1301
125,10.004,1354
126,10.0441,1263
127,10.0841,1274
128,10.1241,1311
129,10.1642,1377
130,10.2042,1310
131,10.2442,1307
132,10.2843,1330
133,10.3243,1388
134,10.3643,1339
135,10.4043,1320
136,10.4444,1279
137,10.4844,1339
138,10.5244,1296
139,10.5645,1371
140,10.6045,1311
141,10.6445,1352
142,10.6846,1379
143,10.7246,1384
144,10.7646,1333
145,10.8047,1372
146,10.8447,1314
147,10.8847,1385
148,10.9248,1388
149,10.9648,1476
150,11.0048,1393
151,11.0449,1426
152,11.0849,1443
153,11.1249,1398
154,11.165,1369
155,11.205,1462
156,11.245,1402
157,11.2851,1493
158,11.3251,1435
159,11.3651,1469
160,11.4052,1493
161,11.4452,1517
162,11.4852,1465
163,11.5252,1522
164,11.5653,1520
165,11.6053,1523
166,11.6453,1486
167,11.6854,1454
168,11.7254,1486
169,11.7654,1592
170,11.8055,1538
171,11.8455,1462
172,11.8855,1546
173,11.9256,1715
174,11.9656,1547
175,12.0056,1570
176,12.0457,1609
177,12.0857,1633
178,12.1257,1520
179,12.1658,1619
180,12.2058,1605
181,12.2458,1553
182,12.2859,1573
183,12.3259,1662
184,12.3659,1606
185,12.406,1566
186,12.446,1687
187,12.486,1642
188,12.5261,1661
189,12.5661,1497
190,12.6061,1629
191,12.6462,1625
192,12.6862,1651
193,12.7262,1606
194,12.7662,1718
195,12.8063,1711
196,12.8463,1622
197,12.8863,1636
198,12.9264,1622
199,12.9664,1690
200,13.0064,1696
201,13.0465,1609
202,13.0865,1735
203,13.1265,1711
204,13.1666,1598
205,13.2066,1681
206,13.2466,1726
207,13.2867,1746
208,13.3267,1660
209,13.3667,1710
210,13.4068,1713
211,13.4468,1809
212,13.4868,1746
213,13.5269,1703
214,13.5669,1755
215,13.6069,1771
216,13.647,1756
217,13.687,1755
218,13.727,1778
219,13.7671,1791
220,13.8071,1774
221,13.8471,1844
222,13.8871,1852
223,13.9272,1808
224,13.9672,1905
225,14.0072,1826
226,14.0473,1951
227,14.0873,1844
228,14.1273,1761
229,14.1674,1865
230,14.2074,1823
231,14.2474,1811
232,14.2875,1831
233,14.3275,1788
234,14.3675,1931
235,14.4076,1964
236,14.4476,1785
237,14.4876,1883
238,14.5277,1859
239,14.5677,1941
240,14.6077,1960
241,14.6478,1959
242,14.6878,1929
243,14.7278,1968
244,14.7679,1974
245,14.8079,2035
246,14.8479,1998
247,14.888,2029
248,14.928,2010
249,14.968,1893
250,15.008,2021
251,15.0481,2103
252,15.0881,2013
253,15.1281,1947
254,15.1682,1960
255,15.2082,1982
256,15.2482,2113
257,15.2883,2088
258,15.3283,2123
259,15.3683,2077
260,15.4084,2105
261,15.4484,2117
262,15.4884,2183
263,15.5285,2106
264,15.5685,2081
265,15.6085,2148
266,15.6486,2092
267,15.6886,2207
268,15.7286,2149
269,15.7687,2154
270,15.8087,2158
271,15.8487,2199
272,15.8888,2227
273,15.9288,2218
274,15.9688,2208
275,16.0089,2212
276,16.0489,2160
277,16.0889,2261
278,16.129,2162
279,16.169,2202
280,16.209,2183
281,16.249,2175
282,16.2891,2258
283,16.3291,2192
284,16.3691,2126
285,16.4092,2277
286,16.4492,2199
287,16.4892,2316
288,16.5293,2182
289,16.5693,2300
290,16.6093,2273
291,16.6494,2256
292,16.6894,2245
293,16.7294,2281
294,16.7695,2224
295,16.8095,2251
296,16.8495,2229
297,16.8896,2228
298,16.9296,2270
299,16.9696,2251
300,17.0097,2226
301,17.0497,2289
302,17.0897,2132
303,17.1298,2196
304,17.1698,2323
305,17.2098,2357
306,17.2499,2261
307,17.2899,2249
308,17.3299,2394
309,17.3699,2370
310,17.41,2249
311,17.45,2359
312,17.49,2346
313,17.5301,2455
314,17.5701,2339
315,17.6101,2370
316,17.6502,2364
317,17.6902,2452
318,17.7302,2448
319,17.7703,2425
320,17.8103,2337
321,17.8503,2355
322,17.8904,2410
323,17.9304,2360
324,17.9704,2348
325,18.0105,2417
326,18.0505,2450
327,18.0905,2406
328,18.1306,2470
329,18.1706,2433
330,18.2106,2514
331,18.2507,2367
332,18.2907,2498
333,18.3307,2389
334,18.3708,2485
335,18.4108,2531
336,18.4508,2549
337,18.4909,2545
338,18.5309,2560
339,18.5709,2516
340,18.6109,2581
341,18.651,2520
342,18.691,2548
343,18.731,2537
344,18.7711,2576
345,18.8111,2574
346,18.8511,2592
347,18.8912,2641
348,18.9312,2574
349,18.9712,2546
350,19.0113,2501
351,19.0513,2706
352,19.0913,2526
353,19.1314,2643
354,19.1714,2690
355,19.2114,2659
356,19.2515,2647
357,19.2915,2619
358,19.3315,2707
359,19.3716,2708
360,19.4116,2636
361,19.4516,2844
362,19.4917,2698
363,19.5317,2699
364,19.5717,2692
365,19.6118,2741
366,19.6518,2590
367,19.6918,2790
368,19.7318,2645
369,19.7719,2597
370,19.8119,2714
371,19.8519,2724
372,19.892,2731
373,19.932,2713
374,19.972,2757
375,20.0121,2808
376,20.0521,2750
377,20.0921,2769
378,20.1322,2844
379,20.1722,2694
380,20.2122,2692
381,20.2523,2703
382,20.2923,2782
383,20.3323,2786
384,20.3724,2764
385,20.4124,2739
386,20.4524,2746
387,20.4925,2735
388,20.5325,2757
389,20.5725,2637
390,20.6126,2760
391,20.6526,2810
392,20.6926,2699
393,20.7327,2771
394,20.7727,2721
395,20.8127,2743
396,20.8528,2799
397,20.8928,2667
398,20.9328,2695
399,20.9728,2670
400,21.0129,2741
401,21.0529,2727
402,21.0929,2659
403,21.133,2753
404,21.173,2625
405,21.213,2654
406,21.2531,2707
407,21.2931,2662
408,21.3331,2631
409,21.3732,2596
410,21.4132,2639
411,21.4532,2644
412,21.4933,2550
413,21.5333,2634
414,21.5733,2624
415,21.6134,2619
416,21.6534,2573
417,21.6934,2613
418,21.7335,2648
419,21.7735,2644
420,21.8135,2562
421,21.8536,2622
422,21.8936,2503
423,21.9336,2545
424,21.9737,2494
425,22.0137,2537
426,22.0537,2566
427,22.0937,2423
428,22.1338,2414
429,22.1738,2437
430,22.2138,2407
431,22.2539,2390
432,22.2939,2410
433,22.3339,2343
434,22.374,2396
435,22.414,2329
436,22.454,2466
437,22.4941,2308
438,22.5341,2360
439,22.5741,2399
440,22.6142,2241
441,22.6542,2250
442,22.6942,2263
443,22.7343,2214
444,22.7743,2257
445,22.8143,2276
446,22.8544,2204
447,22.8944,2197
448,22.9344,2208
449,22.9745,2131
450,23.0145,2133
451,23.0545,2130
452,23.0946,2101
453,23.1346,2109
454,23.1746,2100
455,23.2147,2115
456,23.2547,2002
457,23.2947,2069
458,23.3347,2005
459,23.3748,2052
460,23.4148,2010
461,23.4548,1948
462,23.4949,1950
463,23.5349,1927
464,23.5749,1920
465,23.615,1982
466,23.655,1938
467,23.695,1954
468,23.7351,1886
469,23.7751,1994
470,23.8151,1826
471,23.8552,1946
472,23.8952,1786
473,23.9352,1873
474,23.9753,1833
475,24.0153,1850
476,24.0553,1795
477,24.0954,1812
478,24.1354,1788
479,24.1754,1752
480,24.2155,1760
481,24.2555,1771
482,24.2955,1795
483,24.3356,1741
484,24.3756,1775
485,24.4156,1694
486,24.4556,1687
487,24.4957,1766
488,24.5357,1748
489,24.5757,1682
490,24.6158,1675
491,24.6558,1631
492,24.6958,1685
493,24.7359,1648
494,24.7759,1724
495,24.8159,1634
496,24.856,1599
497,24.896,1643
498,24.936,1601
499,24.9761,1635
500,25.0161,1573
501,25.0561,1582
502,25.0962,1592
503,25.1362,1563
504,25.1762,1632
505,25.2163,1544
506,25.2563,1612
507,25.2963,1549
508,25.3364,1582
509,25.3764,1482
510,25.4164,1498
511,25.4565,1536
512,25.4965,1483
513,25.5365,1524
514,25.5766,1560
515,25.6166,1489
516,25.6566,1518
517,25.6966,1483
518,25.7367,1473
519,25.7767,1491
520,25.8167,1492
521,25.8568,1601
522,25.8968,1481
523,25.9368,1462
524,25.9769,1472
525,26.0169,1488
526,26.0569,1474
527,26.097,1454
528,26.137,1439
529,26.177,1409
530,26.2171,1422
531,26.2571,1517
532,26.2971,1392
533,26.3372,1405
534,26.3772,1438
535,26.4172,1427
536,26.4573,1371
537,26.4973,1423
538,26.5373,1320
539,26.5774,1379
540,26.6174,1336
541,26.6574,1375
542,26.6975,1465
543,26.7375,1427
544,26.7775,1383
545,26.8175,1409
546,26.8576,1403
547,26.8976,1384
548,26.9376,1438
549,26.9777,1388
550,27.0177,1362
551,27.0577,1396
552,27.0978,1377
553,27.1378,1357
554,27.1778,1388
555,27.2179,1345
556,27.2579,1335
557,27.2979,1358
558,27.338,1358
559,27.378,1299
560,27.418,1326
561,27.4581,1317
562,27.4981,1258
563,27.5381,1247
564,27.5782,1305
565,27.6182,1380
566,27.6582,1291
567,27.6983,1327
568,27.7383,1294
569,27.7783,1279
570,27.8184,1256
571,27.8584,1284
572,27.8984,1250
573,27.9385,1272
574,27.9785,1256
575,28.0185,1406
576,28.0585,1238
577,28.0986,1284
578,28.1386,1341
579,28.1786,1303
580,28.2187,1239
581,28.2587,1207
582,28.2987,1224
583,28.3388,1255
584,28.3788,1226
585,28.4188,1275
586,28.4589,1249
587,28.4989,1196
588,28.5389,1246
589,28.579,1206
590,28.619,1270
591,28.659,1248
592,28.6991,1223
593,28.7391,1306
594,28.7791,1301
595,28.8192,1154
596,28.8592,1242
597,28.8992,1222
598,28.9393,1158
599,28.9793,1170
600,29.0193,1260
601,29.0594,1177
602,29.0994,1226
603,29.1394,1244
604,29.1794,1180
605,29.2195,1282
606,29.2595,1230
607,29.2995,1217
608,29.3396,1225
609,29.3796,1155
610,29.4196,1213
611,29.4597,1159
612,29.4997,1131
613,29.5397,1206
614,29.5798,1173
615,29.6198,1131
616,29.6598,1199
617,29.6999,1194
618,29.7399,1231
619,29.7799,1226
620,29.82,1152
621,29.86,1187
622,29.9,1137
623,29.9401,1172
624,29.9801,1176
625,30.0201,1129
626,30.0602,1217
627,30.1002,1138
628,30.1402,1082
629,30.1803,1180
630,30.2203,1179
631,30.2603,1126
632,30.3004,1162
633,30.3404,1150
634,30.3804,1151
635,30.4204,1093
636,30.4605,1098
637,30.5005,1182
638,30.5405,1141
639,30.5806,1093
640,30.6206,1129
641,30.6606,1142
642,30.7007,1122
643,30.7407,1080
644,30.7807,1140
645,30.8208,1107
646,30.8608,1177
647,30.9008,1186
648,30.9409,1313
649,30.9809,1500
650,31.0209,1346
651,31.061,1288
652,31.101,1140
653,31.141,1121
654,31.1811,1086
655,31.2211,1096
656,31.2611,1051
657,31.3012,1076
658,31.3412,1068
659,31.3812,1036
660,31.4213,1092
661,31.4613,1079
662,31.5013,1074
663,31.5413,1036
664,31.5814,1075
665,31.6214,1099
666,31.6614,1059
667,31.7015,1042
668,31.7415,1083
669,31.7815,1035
670,31.8216,1065
671,31.8616,1006
672,31.9016,1075
673,31.9417,1090
674,31.9817,1085
675,32.0217,1050
676,32.0618,1101
677,32.1018,1115
678,32.1418,1119
679,32.1819,1018
680,32.2219,1137
681,32.2619,1044
682,32.302,1052
683,32.342,1048
684,32.382,1054
685,32.4221,1074
686,32.4621,1038
687,32.5021,1029
688,32.5422,1085
689,32.5822,1039
690,32.6222,1064
691,32.6623,1009
692,32.7023,1076
693,32.7423,1054
694,32.7823,1000
695,32.8224,1030
696,32.8624,1072
697,32.9024,1079
698,32.9425,1083
699,32.9825,1068
700,33.0225,1088
701,33.0626,1061
702,33.1026,1092
703,33.1426,1062
704,33.1827,995
705,33.2227,1075
706,33.2627,1050
707,33.3028,1028
708,33.3428,994
709,33.3828,1037
710,33.4229,1074
711,33.4629,1062
712,33.5029,983
713,33.543,1051
714,33.583,1080
715,33.623,1009
716,33.6631,1063
717,33.7031,1051
718,33.7431,1060
719,33.7832,1112
720,33.8232,1083
721,33.8632,1039
722,33.9032,1074
723,33.9433,1007
724,33.9833,1068
725,34.0233,1061
726,34.0634,1045
727,34.1034,1066
728,34.1434,1018
729,34.1835,1115
730,34.2235,1046
731,34.2635,1068
732,34.3036,1088
733,34.3436,1072
734,34.3836,1067
735,34.4237,1048
736,34.4637,1009
737,34.5037,1034
738,34.5438,1093
739,34.5838,1139
740,34.6238,1113
741,34.6639,1111
742,34.7039,1112
743,34.7439,1077
744,34.784,1123
745,34.824,1098
746,34.864,1091
747,34.9041,1018
748,34.9441,1056
749,34.9841,1108
750,35.0241,1015
751,35.0642,1050
752,35.1042,1068
753,35.1442,1121
754,35.1843,1047
755,35.2243,1158
756,35.2643,1074
757,35.3044,1019
758,35.3444,1021
759,35.3844,1084
760,35.4245,1026
761,35.4645,1038
762,35.5045,1061
763,35.5446,1068
764,35.5846,1018
765,35.6246,1074
766,35.6647,1024
767,35.7047,1100
768,35.7447,1041
769,35.7848,1056
770,35.8248,1009
771,35.8648,1072
772,35.9049,1064
773,35.9449,1033
774,35.9849,1032
775,36.025,1049
776,36.065,995
777,36.105,1097
778,36.1451,1044
779,36.1851,1038
780,36.2251,1026
781,36.2651,996
782,36.3052,978
783,36.3452,1016
784,36.3852,1091
785,36.4253,1009
786,36.4653,1142
787,36.5053,1039
788,36.5454,1102
789,36.5854,981
790,36.6254,991
791,36.6655,1012
792,36.7055,1052
793,36.7455,1091
794,36.7856,1069
795,36.8256,1041
796,36.8656,1026
797,36.9057,1012
798,36.9457,1041
799,36.9857,1030
800,37.0258,1052
801,37.0658,990
802,37.1058,1093
803,37.1459,1057
804,37.1859,1006
805,37.2259,1066
806,37.266,1001
807,37.306,966
808,37.346,1008
809,37.386,1047
810,37.4261,1027
811,37.4661,1031
812,37.5061,1033
813,37.5462,1032
814,37.5862,1030
815,37.6262,1017
816,37.6663,1062
817,37.7063,1041
818,37.7463,977
819,37.7864,1062
820,37.8264,1046
821,37.8664,1067
822,37.9065,1010
823,37.9465,993
824,37.9865,1035
825,38.0266,1068
826,38.0666,1013
827,38.1066,980
828,38.1467,1015
829,38.1867,949
830,38.2267,1072
831,38.2668,1049
832,38.3068,1013
833,38.3468,951
834,38.3869,1054
835,38.4269,977
836,38.4669,1041
837,38.507,977
838,38.547,971
839,38.587,1005
840,38.627,987
841,38.6671,951
842,38.7071,967
843,38.7471,975
844,38.7872,947
845,38.8272,989
846,38.8672,1004
847,38.9073,959
848,38.9473,951
849,38.9873,971
850,39.0274,991
851,39.0674,1015
852,39.1074,1001
853,39.1475,919
854,39.1875,936
855,39.2275,997
856,39.2676,1008
857,39.3076,966
858,39.3476,967
859,39.3877,991
860,39.4277,971
861,39.4677,943
862,39.5078,965
863,39.5478,959
864,39.5878,995
865,39.6279,978
866,39.6679,989
867,39.7079,939
868,39.7479,969
869,39.788,997
870,39.828,913
871,39.868,946
872,39.9081,1031
873,39.9481,999
874,39.9881,942
875,40.0282,979
876,40.0682,957
877,40.1082,962
878,40.1483,927
879,40.1883,995
880,40.2283,962
881,40.2684,950
882,40.3084,1017
883,40.3484,961
884,40.3885,1000
885,40.4285,958
886,40.4685,964
887,40.5086,933
888,40.5486,954
889,40.5886,928
890,40.6287,963
891,40.6687,977
892,40.7087,969
893,40.7488,977
894,40.7888,961
895,40.8288,974
896,40.8689,1000
897,40.9089,977
898,40.9489,953
899,40.9889,934
900,41.029,946
901,41.069,922
902,41.109,939
903,41.1491,936
904,41.1891,960
905,41.2291,922
906,41.2692,948
907,41.3092,919
908,41.3492,931
909,41.3893,927
910,41.4293,915
911,41.4693,941
912,41.5094,882
913,41.5494,957
914,41.5894,898
915,41.6295,967
916,41.6695,960
917,41.7095,951
918,41.7496,935
919,41.7896,900
920,41.8296,909
921,41.8697,969
922,41.9097,920
923,41.9497,886
924,41.9898,879
925,42.0298,880
926,42.0698,923
927,42.1098,912
928,42.1499,887
929,42.1899,871
930,42.2299,911
931,42.27,926
932,42.31,976
933,42.35,916
934,42.3901,941
935,42.4301,904
936,42.4701,921
937,42.5102,922
938,42.5502,872
939,42.5902,872
940,42.6303,894
941,42.6703,906
942,42.7103,903
943,42.7504,841
944,42.7904,871
945,42.8304,866
946,42.8705,906
947,42.9105,905
948,42.9505,850
949,42.9906,845
950,43.0306,852
951,43.0706,879
952,43.1107,843
953,43.1507,864
954,43.1907,848
955,43.2308,816
956,43.2708,900
957,43.3108,860
958,43.3508,842
959,43.3909,800
960,43.4309,873
961,43.4709,860
962,43.511,891
963,43.551,841
964,43.591,849
965,43.6311,809
966,43.6711,885
967,43.7111,850
968,43.7512,859
969,43.7912,853
970,43.8312,805
971,43.8713,886
972,43.9113,889
973,43.9513,886
974,43.9914,867
975,44.0314,809
976,44.0714,879
977,44.1115,839
978,44.1515,856
979,44.1915,815
980,44.2316,838
981,44.2716,867
982,44.3116,797
983,44.3517,887
984,44.3917,833
985,44.4317,842
986,44.4717,767
987,44.5118,836
988,44.5518,833
989,44.5918,830
990,44.6319,830
991,44.6719,800
992,44.7119,797
993,44.752,796
994,44.792,819
995,44.832,812
996,44.8721,815
997,44.9121,817
998,44.9521,767
999,44.9922,797
1000,45.0322,816
1001,45.0722,792
1002,45.1123,884
1003,45.1523,886
1004,45.1923,779
1005,45.2324,781
1006,45.2724,807
1007,45.3124,804
1008,45.3525,771
1009,45.3925,721
1010,45.4325,776
1011,45.4726,802
1012,45.5126,750
1013,45.5526,830
1014,45.5927,789
1015,45.6327,826
1016,45.6727,721
1017,45.7127,779
1018,45.7528,825
1019,45.7928,728
1020,45.8328,792
1021,45.8729,760
1022,45.9129,737
1023,45.9529,790
1024,45.993,811
1025,46.033,780
1026,46.073,706
1027,46.1131,791
1028,46.1531,785
1029,46.1931,751
1030,46.2332,774
1031,46.2732,774
1032,46.3132,752
1033,46.3533,743
1034,46.3933,764
1035,46.4333,748
1036,46.4734,731
1037,46.5134,741
1038,46.5534,705
1039,46.5935,737
1040,46.6335,752
1041,46.6735,738
1042,46.7136,762
1043,46.7536,744
1044,46.7936,727
1045,46.8336,803
1046,46.8737,795
1047,46.9137,742
1048,46.9537,725
1049,46.9938,701
1050,47.0338,729
1051,47.0738,676
1052,47.1139,718
1053,47.1539,720
1054,47.1939,676
1055,47.234,724
1056,47.274,703
1057,47.314,717
1058,47.3541,689
1059,47.3941,684
1060,47.4341,661
1061,47.4742,717
1062,47.5142,682
1063,47.5542,681
1064,47.5943,702
1065,47.6343,688
1066,47.6743,720
1067,47.7144,646
1068,47.7544,702
1069,47.7944,666
1070,47.8345,693
1071,47.8745,682
1072,47.9145,718
1073,47.9546,718
1074,47.9946,688
1075,48.0346,686
1076,48.0746,684
1077,48.1147,642
1078,48.1547,685
1079,48.1947,671
1080,48.2348,675
1081,48.2748,676
1082,48.3148,681
1083,48.3549,662
1084,48.3949,669
1085,48.4349,680
1086,48.475,689
1087,48.515,679
1088,48.555,637
1089,48.5951,647
1090,48.6351,718
1091,48.6751,653
1092,48.7152,662
1093,48.7552,636
1094,48.7952,634
1095,48.8353,654
1096,48.8753,627
1097,48.9153,633
1098,48.9554,670
1099,48.9954,657
1100,49.0354,652
1101,49.0755,671
1102,49.1155,693
1103,49.1555,622
1104,49.1955,642
1105,49.2356,670
1106,49.2756,667
1107,49.3156,597
1108,49.3557,648
1109,49.3957,607
1110,49.4357,599
1111,49.4758,582
1112,49.5158,624
1113,49.5558,611
1114,49.5959,603
1115,49.6359,597
1116,49.6759,623
1117,49.716,649
1118,49.756,606
1119,49.796,646
1120,49.8361,630
1121,49.8761,616
1122,49.9161,577
1123,49.9562,554
1124,49.9962,616
1125,50.0362,602
1126,50.0763,545
1127,50.1163,583
1128,50.1563,634
1129,50.1964,589
1130,50.2364,591
1131,50.2764,600
1132,50.3165,603
1133,50.3565,568
1134,50.3965,602
1135,50.4365,597
1136,50.4766,658
1137,50.5166,549
1138,50.5566,620
1139,50.5967,599
1140,50.6367,568
1141,50.6767,574
1142,50.7168,561
1143,50.7568,574
1144,50.7968,581
1145,50.8369,558
1146,50.8769,647
1147,50.9169,557
1148,50.957,582
1149,50.997,578
1150,51.037,607
1151,51.0771,605
1152,51.1171,601
1153,51.1571,577
1154,51.1972,533
1155,51.2372,579
1156,51.2772,571
1157,51.3173,548
1158,51.3573,599
1159,51.3973,593
1160,51.4374,557
1161,51.4774,546
1162,51.5174,532
1163,51.5574,553
1164,51.5975,582
1165,51.6375,558
1166,51.6775,531
1167,51.7176,542
1168,51.7576,520
1169,51.7976,541
1170,51.8377,548
1171,51.8777,538
1172,51.9177,578
1173,51.9578,567
1174,51.9978,491
1175,52.0378,531
1176,52.0779,546
1177,52.1179,521
1178,52.1579,557
1179,52.198,510
1180,52.238,579
1181,52.278,528
1182,52.3181,553
1183,52.3581,511
1184,52.3981,528
1185,52.4382,505
1186,52.4782,515
1187,52.5182,497
1188,52.5583,472
1189,52.5983,510
1190,52.6383,529
1191,52.6784,541
1192,52.7184,512
1193,52.7584,542
1194,52.7984,516
1195,52.8385,516
1196,52.8785,554
1197,52.9185,574
1198,52.9586,530
1199,52.9986,510
1200,53.0386,540
1201,53.0787,534
1202,53.1187,557
1203,53.1587,515
1204,53.1988,518
1205,53.2388,567
1206,53.2788,505
1207,53.3189,508
1208,53.3589,492
1209,53.3989,525
1210,53.439,497
1211,53.479,532
1212,53.519,521
1213,53.5591,486
1214,53.5991,540
1215,53.6391,527
1216,53.6792,516
1217,53.7192,508
1218,53.7592,505
1219,53.7993,516
1220,53.8393,469
1221,53.8793,518
1222,53.9193,459
1223,53.9594,514
1224,53.9994,489
1225,54.0394,457
1226,54.0795,529
1227,54.1195,493
1228,54.1595,497
1229,54.1996,513
1230,54.2396,503
1231,54.2796,505
1232,54.3197,485
1233,54.3597,503
1234,54.3997,512
1235,54.4398,463
1236,54.4798,507
1237,54.5198,500
1238,54.5599,476
1239,54.5999,478
1240,54.6399,473
1241,54.68,496
1242,54.72,521
1243,54.76,495
1244,54.8001,504
1245,54.8401,515
1246,54.8801,482
1247,54.9202,502
1248,54.9602,476
1249,55.0002,485
1250,55.0402,507
1251,55.0803,475
1252,55.1203,470
1253,55.1603,471
1254,55.2004,498
1255,55.2404,493
1256,55.2804,477
1257,55.3205,439
1258,55.3605,445
1259,55.4005,451
1260,55.4406,481
1261,55.4806,473
1262,55.5206,457
1263,55.5607,485
1264,55.6007,435
1265,55.6407,502
1266,55.6808,440
1267,55.7208,441
1268,55.7608,458
1269,55.8009,492
1270,55.8409,495
1271,55.8809,478
1272,55.921,429
1273,55.961,459
1274,56.001,480
1275,56.0411,464
1276,56.0811,450
1277,56.1211,436
1278,56.1612,454
1279,56.2012,479
1280,56.2412,410
1281,56.2812,472
1282,56.3213,429
1283,56.3613,451
1284,56.4013,464
1285,56.4414,489
1286,56.4814,471
1287,56.5214,509
1288,56.5615,445
1289,56.6015,472
1290,56.6415,512
1291,56.6816,479
1292,56.7216,446
1293,56.7616,434
1294,56.8017,428
1295,56.8417,477
1296,56.8817,460
1297,56.9218,421
1298,56.9618,453
1299,57.0018,434
1300,57.0419,412
1301,57.0819,410
1302,57.1219,448
1303,57.162,445
1304,57.202,421
1305,57.242,461
1306,57.2821,422
1307,57.3221,417
1308,57.3621,489
1309,57.4021,468
1310,57.4422,481
1311,57.4822,453
1312,57.5222,443
1313,57.5623,419
1314,57.6023,467
1315,57.6423,462
1316,57.6824,453
1317,57.7224,416
1318,57.7624,439
1319,57.8025,439
1320,57.8425,464
1321,57.8825,434
1322,57.9226,412
1323,57.9626,425
1324,58.0026,430
1325,58.0427,442
1326,58.0827,452
1327,58.1227,413
1328,58.1628,428
1329,58.2028,468
1330,58.2428,436
1331,58.2829,408
1332,58.3229,425
1333,58.3629,425
1334,58.403,428
1335,58.443,438
1336,58.483,403
1337,58.5231,409
1338,58.5631,408
1339,58.6031,411
1340,58.6431,407
1341,58.6832,448
1342,58.7232,443
1343,58.7632,446
1344,58.8033,441
1345,58.8433,475
1346,58.8833,431
1347,58.9234,402
1348,58.9634,440
1349,59.0034,435
1350,59.0435,400
1351,59.0835,418
1352,59.1235,417
1353,59.1636,393
1354,59.2036,417
1355,59.2436,414
1356,59.2837,428
1357,59.3237,443
1358,59.3637,415
1359,59.4038,421
1360,59.4438,417
1361,59.4838,378
1362,59.5239,461
1363,59.5639,453
1364,59.6039,403
1365,59.644,434
1366,59.684,417
1367,59.724,383
1368,59.764,419
1369,59.8041,390
1370,59.8441,426
1371,59.8841,415
1372,59.9242,398
1373,59.9642,427
1374,60.0042,378
1375,60.0443,425
1376,60.0843,424
1377,60.1243,399
1378,60.1644,425
1379,60.2044,429
1380,60.2444,395
1381,60.2845,424
1382,60.3245,405
1383,60.3645,414
1384,60.4046,415
1385,60.4446,384
1386,60.4846,375
1387,60.5247,403
1388,60.5647,404
1389,60.6047,386
1390,60.6448,368
1391,60.6848,444
1392,60.7248,427
1393,60.7649,412
1394,60.8049,361
1395,60.8449,408
1396,60.885,354
1397,60.925,409
1398,60.965,406
1399,61.005,372
1400,61.0451,339
1401,61.0851,398
1402,61.1251,378
1403,61.1652,427
1404,61.2052,354
1405,61.2452,417
1406,61.2853,384
1407,61.3253,385
1408,61.3653,444
1409,61.4054,395
1410,61.4454,386
1411,61.4854,381
1412,61.5255,405
1413,61.5655,391
1414,61.6055,429
1415,61.6456,371
1416,61.6856,413
1417,61.7256,406
1418,61.7657,393
1419,61.8057,403
1420,61.8457,387
1421,61.8858,378
1422,61.9258,390
1423,61.9658,380
1424,62.0059,386
1425,62.0459,386
1426,62.0859,360
1427,62.1259,377
1428,62.166,427
1429,62.206,365
1430,62.246,410
1431,62.2861,385
1432,62.3261,414
1433,62.3661,372
1434,62.4062,370
1435,62.4462,357
1436,62.4862,386
1437,62.5263,404
1438,62.5663,394
1439,62.6063,370
1440,62.6464,390
1441,62.6864,385
1442,62.7264,410
1443,62.7665,389
1444,62.8065,399
1445,62.8465,386
1446,62.8866,387
1447,62.9266,384
1448,62.9666,380
1449,63.0067,395
1450,63.0467,372
1451,63.0867,408
1452,63.1268,385
1453,63.1668,402
1454,63.2068,349
1455,63.2469,390
1456,63.2869,377
1457,63.3269,379
1458,63.3669,361
1459,63.407,375
1460,63.447,348
1461,63.487,390
1462,63.5271,388
1463,63.5671,381
1464,63.6071,384
1465,63.6472,378
1466,63.6872,355
1467,63.7272,367
1468,63.7673,390
1469,63.8073,384
1470,63.8473,355
1471,63.8874,353
1472,63.9274,348
1473,63.9674,359
1474,64.0075,366
1475,64.0475,357
1476,64.0875,381
1477,64.1276,388
1478,64.1676,405
1479,64.2076,389
1480,64.2477,386
1481,64.2877,396
1482,64.3277,367
1483,64.3678,373
1484,64.4078,384
1485,64.4478,361
1486,64.4878,393
1487,64.5279,408
1488,64.5679,400
1489,64.6079,371
1490,64.648,398
1491,64.688,380
1492,64.728,390
1493,64.7681,385
1494,64.8081,393
1495,64.8481,362
1496,64.8882,361
1497,64.9282,348
1498,64.9682,362
1499,65.0083,360
1500,65.0483,340
1501,65.0883,357
1502,65.1284,365
1503,65.1684,384
1504,65.2084,368
1505,65.2485,368
1506,65.2885,353
1507,65.3285,348
1508,65.3686,363
1509,65.4086,385
1510,65.4486,357
1511,65.4887,369
1512,65.5287,383
1513,65.5687,356
1514,65.6088,412
1515,65.6488,354
1516,65.6888,335
1517,65.7288,380
1518,65.7689,370
1519,65.8089,367
1520,65.8489,342
1521,65.889,369
1522,65.929,358
1523,65.969,339
1524,66.0091,394
1525,66.0491,346
1526,66.0891,398
1527,66.1292,341
1528,66.1692,323
1529,66.2092,379
1530,66.2493,366
1531,66.2893,397
1532,66.3293,327
1533,66.3694,381
1534,66.4094,345
1535,66.4494,375
1536,66.4895,376
1537,66.5295,380
1538,66.5695,347
1539,66.6096,365
1540,66.6496,397
1541,66.6896,312
1542,66.7297,390
1543,66.7697,355
1544,66.8097,335
1545,66.8497,354
1546,66.8898,353
1547,66.9298,350
1548,66.9698,364
1549,67.0099,349
1550,67.0499,345
1551,67.0899,363
1552,67.13,368
1553,67.17,377
1554,67.21,330
1555,67.2501,402
1556,67.2901,364
1557,67.3301,386
1558,67.3702,341
1559,67.4102,353
1560,67.4502,361
1561,67.4903,364
1562,67.5303,358
1563,67.5703,325
1564,67.6104,340
1565,67.6504,355
1566,67.6904,357
1567,67.7305,354
1568,67.7705,340
1569,67.8105,363
1570,67.8506,378
1571,67.8906,345
1572,67.9306,358
1573,67.9707,371
1574,68.0107,357
1575,68.0507,367
1576,68.0907,364
1577,68.1308,343
1578,68.1708,356
1579,68.2108,347
1580,68.2509,343
1581,68.2909,381
1582,68.3309,359
1583,68.371,334
1584,68.411,362
1585,68.451,327
1586,68.4911,334
1587,68.5311,335
1588,68.5711,336
1589,68.6112,331
1590,68.6512,364
1591,68.6912,347
1592,68.7313,388
1593,68.7713,367
1594,68.8113,347
1595,68.8514,380
1596,68.8914,328
1597,68.9314,364
1598,68.9715,352
1599,69.0115,325
1600,69.0515,345
1601,69.0916,326
1602,69.1316,348
1603,69.1716,361
1604,69.2116,315
1605,69.2517,338
1606,69.2917,363
1607,69.3317,343
1608,69.3718,406
1609,69.4118,355
1610,69.4518,369
1611,69.4919,366
1612,69.5319,353
1613,69.5719,376
1614,69.612,379
1615,69.652,349
1616,69.692,345
1617,69.7321,341
1618,69.7721,343
1619,69.8121,351
1620,69.8522,329
1621,69.8922,357
1622,69.9322,335
1623,69.9723,347
1624,70.0123,384
