,     Angle,       PSD
0,5.0,1989
1,5.04003,2027
2,5.08006,2001
3,5.1201,2068
4,5.16013,1946
5,5.20016,1974
6,5.24019,1934
7,5.28023,1965
8,5.32026,2048
9,5.36029,1908
10,5.40032,1887
11,5.44035,1966
12,5.48039,1848
13,5.52042,1848
14,5.56045,1852
15,5.60048,1883
16,5.64052,1883
17,5.68055,1786
18,5.72058,1866
19,5.76061,1771
20,5.80064,1783
21,5.84068,1776
22,5.88071,1758
23,5.92074,1735
24,5.96077,1723
25,6.0008,1717
26,6.04084,1676
27,6.08087,1644
28,6.1209,1794
29,6.16093,1658
30,6.20097,1676
31,6.241,1680
32,6.28103,1750
33,6.32106,1728
34,6.36109,1639
35,6.40113,1629
36,6.44116,1675
37,6.48119,1619
38,6.52122,1606
39,6.56126,1632
40,6.60129,1572
41,6.64132,1686
42,6.68135,1586
43,6.72138,1540
44,6.76142,1630
45,6.80145,1623
46,6.84148,1585
47,6.88151,1571
48,6.92155,1588
49,6.96158,1548
50,7.00161,1550
51,7.04164,1557
52,7.08167,1495
53,7.12171,1570
54,7.16174,1514
55,7.20177,1529
56,7.2418,1528
57,7.28184,1556
58,7.32187,1561
59,7.3619,1557
60,7.40193,1503
61,7.44196,1496
62,7.482,1557
63,7.52203,1524
64,7.56206,1477
65,7.60209,1552
66,7.64213,1465
67,7.68216,1542
68,7.72219,1509
69,7.76222,1568
70,7.80225,1482
71,7.84229,1600
72,7.88232,1483
73,7.92235,1523
74,7.96238,1436
75,8.00241,1528
76,8.04245,1571
77,8.08248,1433
78,8.12251,1451
79,8.16254,1474
80,8.20258,1478
81,8.24261,1540
82,8.28264,1447
83,8.32267,1481
84,8.3627,1536
85,8.40274,1520
86,8.44277,1482
87,8.4828,1563
88,8.52283,1556
89,8.56287,1457
90,8.6029,1539
91,8.64293,1503
92,8.68296,1604
93,8.72299,1489
94,8.76303,1522
95,8.80306,1500
96,8.84309,1456
97,8.88312,1413
98,8.92316,1532
99,8.96319,1543
100,9.00322,1565
101,9.04325,1472
102,9.08328,1536
103,9.12332,1525
104,9.16335,1533
105,9.20338,1496
106,9.24341,1434
107,9.28345,1434
108,9.32348,1511
109,9.36351,1477
110,9.40354,1490
111,9.44357,1518
112,9.48361,1529
113,9.52364,1498
114,9.56367,1441
115,9.6037,1537
116,9.64374,1589
117,9.68377,1490
118,9.7238,1557
119,9.76383,1546
120,9.80386,1516
121,9.8439,1571
122,9.88393,1569
123,9.92396,1542
124,9.96399,1587
125,10.004,1617
126,10.0441,1588
127,10.0841,1605
128,10.1241,1622
129,10.1642,1616
130,10.2042,1568
131,10.2442,1668
132,10.2843,1695
133,10.3243,1667
134,10.3643,1617
135,10.4043,1636
136,10.4444,1581
137,10.4844,1572
138,10.5244,1610
139,10.5645,1553
140,10.6045,1603
141,10.6445,1582
142,10.6846,1669
143,10.7246,1689
144,10.7646,1696
145,10.8047,1692
146,10.8447,1643
147,10.8847,1585
148,10.9248,1637
149,10.9648,1659
150,11.0048,1688
151,11.0449,1706
152,11.0849,1736
153,11.1249,1759
154,11.165,1726
155,11.205,1664
156,11.245,1802
157,11.2851,1709
158,11.3251,1757
159,11.3651,1768
160,11.4052,1691
161,11.4452,1739
162,11.4852,1871
163,11.5252,1769
164,11.5653,1750
165,11.6053,1808
166,11.6453,1837
167,11.6854,1858
168,11.7254,1870
169,11.7654,2010
170,11.8055,1933
171,11.8455,2012
172,11.8855,2081
173,11.9256,1998
174,11.9656,2027
175,12.0056,2106
176,12.0457,1940
177,12.0857,2012
178,12.1257,1904
179,12.1658,1933
180,12.2058,1893
181,12.2458,1929
182,12.2859,1964
183,12.3259,1956
184,12.3659,1914
185,12.406,1963
186,12.446,1896
187,12.486,1990
188,12.5261,1898
189,12.5661,1977
190,12.6061,1979
191,12.6462,1955
192,12.6862,1888
193,12.7262,1950
194,12.7662,1964
195,12.8063,2028
196,12.8463,1947
197,12.8863,1964
198,12.9264,1981
199,12.9664,2072
200,13.0064,1994
201,13.0465,1983
202,13.0865,2007
203,13.1265,2046
204,13.1666,1952
205,13.2066,2054
206,13.2466,2064
207,13.2867,2025
208,13.3267,2068
209,13.3667,2011
210,13.4068,2084
211,13.4468,2119
212,13.4868,2055
213,13.5269,2066
214,13.5669,2051
215,13.6069,2183
216,13.647,2047
217,13.687,2054
218,13.727,2075
219,13.7671,2151
220,13.8071,2071
221,13.8471,2060
222,13.8871,2193
223,13.9272,2110
224,13.9672,2099
225,14.0072,2110
226,14.0473,2098
227,14.0873,2199
228,14.1273,2156
229,14.1674,2122
230,14.2074,2164
231,14.2474,2217
232,14.2875,2226
233,14.3275,2245
234,14.3675,2244
235,14.4076,2271
236,14.4476,2198
237,14.4876,2186
238,14.5277,2288
239,14.5677,2312
240,14.6077,2215
241,14.6478,2170
242,14.6878,2327
243,14.7278,2236
244,14.7679,2288
245,14.8079,2283
246,14.8479,2289
247,14.888,2285
248,14.928,2260
249,14.968,2248
250,15.008,2218
251,15.0481,2373
252,15.0881,2360
253,15.1281,2315
254,15.1682,2327
255,15.2082,2312
256,15.2482,2273
257,15.2883,2305
258,15.3283,2297
259,15.3683,2447
260,15.4084,2322
261,15.4484,2277
262,15.4884,2332
263,15.5285,2452
264,15.5685,2353
265,15.6085,2371
266,15.6486,2403
267,15.6886,2334
268,15.7286,2485
269,15.7687,2358
270,15.8087,2448
271,15.8487,2365
272,15.8888,2437
273,15.9288,2429
274,15.9688,2408
275,16.0089,2410
276,16.0489,2481
277,16.0889,2452
278,16.129,2422
279,16.169,2484
280,16.209,2470
281,16.249,2494
282,16.2891,2451
283,16.3291,2381
284,16.3691,2451
285,16.4092,2487
286,16.4492,2488
287,16.4892,2417
288,16.5293,2521
289,16.5693,2537
290,16.6093,2511
291,16.6494,2479
292,16.6894,2438
293,16.7294,2422
294,16.7695,2549
295,16.8095,2482
296,16.8495,2484
297,16.8896,2561
298,16.9296,2481
299,16.9696,2476
300,17.0097,2607
301,17.0497,2481
302,17.0897,2557
303,17.1298,2627
304,17.1698,2625
305,17.2098,2548
306,17.2499,2597
307,17.2899,2539
308,17.3299,2636
309,17.3699,2447
310,17.41,2529
311,17.45,2671
312,17.49,2522
313,17.5301,2600
314,17.5701,2602
315,17.6101,2622
316,17.6502,2662
317,17.6902,2571
318,17.7302,2704
319,17.7703,2642
320,17.8103,2618
321,17.8503,2665
322,17.8904,2683
323,17.9304,2670
324,17.9704,2712
325,18.0105,2661
326,18.0505,2787
327,18.0905,2588
328,18.1306,2843
329,18.1706,2777
330,18.2106,2679
331,18.2507,2689
332,18.2907,2755
333,18.3307,2695
334,18.3708,2740
335,18.4108,2749
336,18.4508,2752
337,18.4909,2791
338,18.5309,2732
339,18.5709,2794
340,18.6109,2750
341,18.651,2775
342,18.691,2846
343,18.731,2781
344,18.7711,2793
345,18.8111,2840
346,18.8511,2826
347,18.8912,2799
348,18.9312,2844
349,18.9712,2824
350,19.0113,2828
351,19.0513,2758
352,19.0913,2834
353,19.1314,2908
354,19.1714,2862
355,19.2114,2949
356,19.2515,2894
357,19.2915,2969
358,19.3315,2938
359,19.3716,2879
360,19.4116,2879
361,19.4516,2912
362,19.4917,2967
363,19.5317,2874
364,19.5717,2958
365,19.6118,2902
366,19.6518,2989
367,19.6918,2898
368,19.7318,2933
369,19.7719,2948
370,19.8119,3050
371,19.8519,2943
372,19.892,2968
373,19.932,2989
374,19.972,3027
375,20.0121,2931
376,20.0521,2956
377,20.0921,2924
378,20.1322,2864
379,20.1722,3001
380,20.2122,2957
381,20.2523,2988
382,20.2923,2927
383,20.3323,2949
384,20.3724,2977
385,20.4124,2901
386,20.4524,2962
387,20.4925,2911
388,20.5325,2995
389,20.5725,2827
390,20.6126,2913
391,20.6526,2970
392,20.6926,2881
393,20.7327,2848
394,20.7727,2944
395,20.8127,2862
396,20.8528,2928
397,20.8928,2907
398,20.9328,2912
399,20.9728,2982
400,21.0129,2940
401,21.0529,2876
402,21.0929,2977
403,21.133,2779
404,21.173,2890
405,21.213,2877
406,21.2531,2891
407,21.2931,2868
408,21.3331,2791
409,21.3732,2669
410,21.4132,2764
411,21.4532,2828
412,21.4933,2719
413,21.5333,2705
414,21.5733,2750
415,21.6134,2815
416,21.6534,2721
417,21.6934,2704
418,21.7335,2758
419,21.7735,2728
420,21.8135,2711
421,21.8536,2623
422,21.8936,2654
423,21.9336,2622
424,21.9737,2729
425,22.0137,2616
426,22.0537,2588
427,22.0937,2622
428,22.1338,2466
429,22.1738,2555
430,22.2138,2664
431,22.2539,2621
432,22.2939,2558
433,22.3339,2515
434,22.374,2559
435,22.414,2497
436,22.454,2577
437,22.4941,2434
438,22.5341,2489
439,22.5741,2452
440,22.6142,2373
441,22.6542,2453
442,22.6942,2349
443,22.7343,2481
444,22.7743,2291
445,22.8143,2339
446,22.8544,2324
447,22.8944,2331
448,22.9344,2206
449,22.9745,2236
450,23.0145,2285
451,23.0545,2258
452,23.0946,2265
453,23.1346,2226
454,23.1746,2184
455,23.2147,2143
456,23.2547,2221
457,23.2947,2193
458,23.3347,2108
459,23.3748,2064
460,23.4148,2167
461,23.4548,2101
462,23.4949,2010
463,23.5349,2051
464,23.5749,2059
465,23.615,1968
466,23.655,2079
467,23.695,2033
468,23.7351,1974
469,23.7751,2047
470,23.8151,2044
471,23.8552,1934
472,23.8952,1911
473,23.9352,1955
474,23.9753,1944
475,24.0153,1944
476,24.0553,1873
477,24.0954,1986
478,24.1354,1884
479,24.1754,1794
480,24.2155,1898
481,24.2555,1894
482,24.2955,1791
483,24.3356,1854
484,24.3756,1803
485,24.4156,1773
486,24.4556,1878
487,24.4957,1763
488,24.5357,1743
489,24.5757,1770
490,24.6158,1779
491,24.6558,1784
492,24.6958,1718
493,24.7359,1663
494,24.7759,1734
495,24.8159,1683
496,24.856,1653
497,24.896,1692
498,24.936,1637
499,24.9761,1764
500,25.0161,1643
501,25.0561,1627
502,25.0962,1706
503,25.1362,1651
504,25.1762,1635
505,25.2163,1617
506,25.2563,1567
507,25.2963,1621
508,25.3364,1631
509,25.3764,1672
510,25.4164,1584
511,25.4565,1618
512,25.4965,1530
513,25.5365,1635
514,25.5766,1555
515,25.6166,1564
516,25.6566,1515
517,25.6966,1525
518,25.7367,1584
519,25.7767,1496
520,25.8167,1537
521,25.8568,1527
522,25.8968,1540
523,25.9368,1503
524,25.9769,1510
525,26.0169,1543
526,26.0569,1543
527,26.097,1526
528,26.137,1484
529,26.177,1526
530,26.2171,1485
531,26.2571,1534
532,26.2971,1533
533,26.3372,1444
534,26.3772,1485
535,26.4172,1518
536,26.4573,1501
537,26.4973,1498
538,26.5373,1526
539,26.5774,1505
540,26.6174,1369
541,26.6574,1486
542,26.6975,1480
543,26.7375,1458
544,26.7775,1478
545,26.8175,1425
546,26.8576,1444
547,26.8976,1481
548,26.9376,1426
549,26.9777,1360
550,27.0177,1481
551,27.0577,1452
552,27.0978,1450
553,27.1378,1397
554,27.1778,1487
555,27.2179,1385
556,27.2579,1438
557,27.2979,1370
558,27.338,1454
559,27.378,1377
560,27.418,1367
561,27.4581,1338
562,27.4981,1407
563,27.5381,1329
564,27.5782,1343
565,27.6182,1398
566,27.6582,1356
567,27.6983,1374
568,27.7383,1311
569,27.7783,1278
570,27.8184,1298
571,27.8584,1322
572,27.8984,1358
573,27.9385,1294
574,27.9785,1337
575,28.0185,1296
576,28.0585,1355
577,28.0986,1329
578,28.1386,1344
579,28.1786,1293
580,28.2187,1391
581,28.2587,1347
582,28.2987,1265
583,28.3388,1287
584,28.3788,1312
585,28.4188,1326
586,28.4589,1308
587,28.4989,1289
588,28.5389,1307
589,28.579,1291
590,28.619,1247
591,28.659,1206
592,28.6991,1279
593,28.7391,1276
594,28.7791,1262
595,28.8192,1271
596,28.8592,1260
597,28.8992,1226
598,28.9393,1297
599,28.9793,1224
600,29.0193,1274
601,29.0594,1289
602,29.0994,1206
603,29.1394,1256
604,29.1794,1266
605,29.2195,1247
606,29.2595,1251
607,29.2995,1206
608,29.3396,1168
609,29.3796,1239
610,29.4196,1293
611,29.4597,1190
612,29.4997,1212
613,29.5397,1200
614,29.5798,1170
615,29.6198,1247
616,29.6598,1262
617,29.6999,1230
618,29.7399,1209
619,29.7799,1241
620,29.82,1272
621,29.86,1185
622,29.9,1151
623,29.9401,1293
624,29.9801,1211
625,30.0201,1217
626,30.0602,1145
627,30.1002,1228
628,30.1402,1180
629,30.1803,1201
630,30.2203,1180
631,30.2603,1194
632,30.3004,1171
633,30.3404,1122
634,30.3804,1204
635,30.4204,1184
636,30.4605,1134
637,30.5005,1191
638,30.5405,1145
639,30.5806,1153
640,30.6206,1199
641,30.6606,1208
642,30.7007,1126
643,30.7407,1188
644,30.7807,1149
645,30.8208,1078
646,30.8608,1122
647,30.9008,1108
648,30.9409,1065
649,30.9809,1092
650,31.0209,1092
651,31.061,1101
652,31.101,1128
653,31.141,1140
654,31.1811,1079
655,31.2211,1085
656,31.2611,1130
657,31.3012,1127
658,31.3412,1080
659,31.3812,1130
660,31.4213,1067
661,31.4613,1056
662,31.5013,1070
663,31.5413,1071
664,31.5814,1101
665,31.6214,1063
666,31.6614,1161
667,31.7015,1044
668,31.7415,1058
669,31.7815,1071
670,31.8216,1023
671,31.8616,1075
672,31.9016,1113
673,31.9417,1058
674,31.9817,1107
675,32.0217,1048
676,32.0618,1055
677,32.1018,1104
678,32.1418,1050
679,32.1819,1053
680,32.2219,1052
681,32.2619,1094
682,32.302,1093
683,32.342,1097
684,32.382,1106
685,32.4221,1123
686,32.4621,1028
687,32.5021,1087
688,32.5422,1121
689,32.5822,1092
690,32.6222,1074
691,32.6623,1091
692,32.7023,1056
693,32.7423,1047
694,32.7823,1112
695,32.8224,1091
696,32.8624,1109
697,32.9024,1027
698,32.9425,1053
699,32.9825,1026
700,33.0225,1097
701,33.0626,1078
702,33.1026,1085
703,33.1426,1054
704,33.1827,1033
705,33.2227,1096
706,33.2627,1007
707,33.3028,1085
708,33.3428,1048
709,33.3828,997
710,33.4229,1062
711,33.4629,1075
712,33.5029,1040
713,33.543,1058
714,33.583,1049
715,33.623,1089
716,33.6631,1053
717,33.7031,1046
718,33.7431,1011
719,33.7832,1036
720,33.8232,1045
721,33.8632,1068
722,33.9032,1045
723,33.9433,1038
724,33.9833,1139
725,34.0233,987
726,34.0634,1127
727,34.1034,1070
728,34.1434,1047
729,34.1835,1030
730,34.2235,1068
731,34.2635,1064
732,34.3036,1115
733,34.3436,1070
734,34.3836,1116
735,34.4237,1084
736,34.4637,1076
737,34.5037,1078
738,34.5438,1099
739,34.5838,1086
740,34.6238,1113
741,34.6639,1107
742,34.7039,1106
743,34.7439,1122
744,34.784,1155
745,34.824,1094
746,34.864,1104
747,34.9041,1038
748,34.9441,1083
749,34.9841,1148
750,35.0241,1102
751,35.0642,1147
752,35.1042,1107
753,35.1442,1138
754,35.1843,1006
755,35.2243,1104
756,35.2643,1109
757,35.3044,1048
758,35.3444,1078
759,35.3844,1094
760,35.4245,1034
761,35.4645,1121
762,35.5045,1096
763,35.5446,1045
764,35.5846,1024
765,35.6246,1073
766,35.6647,1032
767,35.7047,1056
768,35.7447,1035
769,35.7848,1088
770,35.8248,1107
771,35.8648,1035
772,35.9049,1051
773,35.9449,1079
774,35.9849,1061
775,36.025,1027
776,36.065,1124
777,36.105,1071
778,36.1451,1090
779,36.1851,1036
780,36.2251,1002
781,36.2651,1048
782,36.3052,1072
783,36.3452,998
784,36.3852,1005
785,36.4253,1049
786,36.4653,968
787,36.5053,987
788,36.5454,998
789,36.5854,1010
790,36.6254,994
791,36.6655,1032
792,36.7055,1097
793,36.7455,1040
794,36.7856,1093
795,36.8256,1010
796,36.8656,1041
797,36.9057,1040
798,36.9457,1028
799,36.9857,1036
800,37.0258,1025
801,37.0658,1037
802,37.1058,1021
803,37.1459,1055
804,37.1859,999
805,37.2259,1007
806,37.266,1077
807,37.306,1014
808,37.346,1008
809,37.386,1070
810,37.4261,1056
811,37.4661,1009
812,37.5061,1023
813,37.5462,1042
814,37.5862,1020
815,37.6262,1038
816,37.6663,1043
817,37.7063,1047
818,37.7463,981
819,37.7864,976
820,37.8264,1047
821,37.8664,1062
822,37.9065,1019
823,37.9465,1010
824,37.9865,985
825,38.0266,1068
826,38.0666,1051
827,38.1066,1019
828,38.1467,1050
829,38.1867,1015
830,38.2267,938
831,38.2668,1024
832,38.3068,1007
833,38.3468,1018
834,38.3869,1000
835,38.4269,984
836,38.4669,986
837,38.507,989
838,38.547,1030
839,38.587,1023
840,38.627,1037
841,38.6671,962
842,38.7071,1016
843,38.7471,990
844,38.7872,1015
845,38.8272,1033
846,38.8672,1001
847,38.9073,986
848,38.9473,985
849,38.9873,994
850,39.0274,995
851,39.0674,1011
852,39.1074,1014
853,39.1475,1025
854,39.1875,957
855,39.2275,986
856,39.2676,970
857,39.3076,974
858,39.3476,997
859,39.3877,1000
860,39.4277,1006
861,39.4677,951
862,39.5078,973
863,39.5478,996
864,39.5878,927
865,39.6279,1037
866,39.6679,1002
867,39.7079,977
868,39.7479,916
869,39.788,1021
870,39.828,910
871,39.868,970
872,39.9081,1014
873,39.9481,964
874,39.9881,953
875,40.0282,1007
876,40.0682,958
877,40.1082,907
878,40.1483,999
879,40.1883,1013
880,40.2283,924
881,40.2684,955
882,40.3084,973
883,40.3484,982
884,40.3885,914
885,40.4285,1009
886,40.4685,963
887,40.5086,951
888,40.5486,952
889,40.5886,981
890,40.6287,965
891,40.6687,953
892,40.7087,1002
893,40.7488,936
894,40.7888,944
895,40.8288,906
896,40.8689,943
897,40.9089,933
898,40.9489,988
899,40.9889,885
900,41.029,946
901,41.069,948
902,41.109,959
903,41.1491,1039
904,41.1891,916
905,41.2291,955
906,41.2692,905
907,41.3092,975
908,41.3492,901
909,41.3893,949
910,41.4293,976
911,41.4693,942
912,41.5094,958
913,41.5494,907
914,41.5894,915
915,41.6295,956
916,41.6695,942
917,41.7095,873
918,41.7496,909
919,41.7896,962
920,41.8296,918
921,41.8697,901
922,41.9097,920
923,41.9497,915
924,41.9898,945
925,42.0298,896
926,42.0698,880
927,42.1098,891
928,42.1499,938
929,42.1899,948
930,42.2299,907
931,42.27,919
932,42.31,875
933,42.35,911
934,42.3901,916
935,42.4301,890
936,42.4701,838
937,42.5102,916
938,42.5502,905
939,42.5902,892
940,42.6303,944
941,42.6703,885
942,42.7103,854
943,42.7504,855
944,42.7904,940
945,42.8304,920
946,42.8705,880
947,42.9105,945
948,42.9505,861
949,42.9906,882
950,43.0306,878
951,43.0706,896
952,43.1107,852
953,43.1507,898
954,43.1907,877
955,43.2308,865
956,43.2708,903
957,43.3108,885
958,43.3508,814
959,43.3909,933
960,43.4309,854
961,43.4709,875
962,43.511,887
963,43.551,855
964,43.591,878
965,43.6311,852
966,43.6711,847
967,43.7111,822
968,43.7512,844
969,43.7912,861
970,43.8312,806
971,43.8713,822
972,43.9113,839
973,43.9513,858
974,43.9914,810
975,44.0314,881
976,44.0714,784
977,44.1115,906
978,44.1515,831
979,44.1915,835
980,44.2316,840
981,44.2716,825
982,44.3116,826
983,44.3517,794
984,44.3917,832
985,44.4317,884
986,44.4717,919
987,44.5118,828
988,44.5518,875
989,44.5918,805
990,44.6319,777
991,44.6719,809
992,44.7119,855
993,44.752,826
994,44.792,804
995,44.832,822
996,44.8721,820
997,44.9121,843
998,44.9521,879
999,44.9922,846
1000,45.0322,813
1001,45.0722,766
1002,45.1123,792
1003,45.1523,799
1004,45.1923,781
1005,45.2324,809
1006,45.2724,749
1007,45.3124,842
1008,45.3525,821
1009,45.3925,833
1010,45.4325,826
1011,45.4726,813
1012,45.5126,840
1013,45.5526,798
1014,45.5927,789
1015,45.6327,784
1016,45.6727,784
1017,45.7127,765
1018,45.7528,767
1019,45.7928,724
1020,45.8328,774
1021,45.8729,785
1022,45.9129,788
1023,45.9529,777
1024,45.993,754
1025,46.033,759
1026,46.073,767
1027,46.1131,756
1028,46.1531,790
1029,46.1931,794
1030,46.2332,744
1031,46.2732,713
1032,46.3132,736
1033,46.3533,751
1034,46.3933,779
1035,46.4333,740
1036,46.4734,842
1037,46.5134,787
1038,46.5534,777
1039,46.5935,791
1040,46.6335,710
1041,46.6735,696
1042,46.7136,702
1043,46.7536,805
1044,46.7936,750
1045,46.8336,750
1046,46.8737,769
1047,46.9137,733
1048,46.9537,734
1049,46.9938,763
1050,47.0338,673
1051,47.0738,723
1052,47.1139,719
1053,47.1539,698
1054,47.1939,719
1055,47.234,663
1056,47.274,723
1057,47.314,643
1058,47.3541,708
1059,47.3941,713
1060,47.4341,721
1061,47.4742,716
1062,47.5142,704
1063,47.5542,702
1064,47.5943,683
1065,47.6343,698
1066,47.6743,713
1067,47.7144,718
1068,47.7544,721
1069,47.7944,729
1070,47.8345,698
1071,47.8745,678
1072,47.9145,658
1073,47.9546,654
1074,47.9946,691
1075,48.0346,723
1076,48.0746,696
1077,48.1147,682
1078,48.1547,678
1079,48.1947,685
1080,48.2348,693
1081,48.2748,633
1082,48.3148,696
1083,48.3549,662
1084,48.3949,699
1085,48.4349,626
1086,48.475,724
1087,48.515,650
1088,48.555,675
1089,48.5951,644
1090,48.6351,706
1091,48.6751,629
1092,48.7152,644
1093,48.7552,643
1094,48.7952,637
1095,48.8353,649
1096,48.8753,619
1097,48.9153,642
1098,48.9554,619
1099,48.9954,643
1100,49.0354,645
1101,49.0755,642
1102,49.1155,655
1103,49.1555,630
1104,49.1955,669
1105,49.2356,650
1106,49.2756,630
1107,49.3156,640
1108,49.3557,637
1109,49.3957,618
1110,49.4357,666
1111,49.4758,640
1112,49.5158,627
1113,49.5558,621
1114,49.5959,662
1115,49.6359,650
1116,49.6759,667
1117,49.716,623
1118,49.756,610
1119,49.796,634
1120,49.8361,608
1121,49.8761,617
1122,49.9161,590
1123,49.9562,650
1124,49.9962,604
1125,50.0362,604
1126,50.0763,628
1127,50.1163,574
1128,50.1563,523
1129,50.1964,598
1130,50.2364,586
1131,50.2764,617
1132,50.3165,620
1133,50.3565,595
1134,50.3965,592
1135,50.4365,608
1136,50.4766,596
1137,50.5166,589
1138,50.5566,586
1139,50.5967,588
1140,50.6367,596
1141,50.6767,607
1142,50.7168,569
1143,50.7568,578
1144,50.7968,578
1145,50.8369,540
1146,50.8769,595
1147,50.9169,572
1148,50.957,543
1149,50.997,598
1150,51.037,533
1151,51.0771,553
1152,51.1171,603
1153,51.1571,546
1154,51.1972,564
1155,51.2372,587
1156,51.2772,573
1157,51.3173,561
1158,51.3573,579
1159,51.3973,570
1160,51.4374,582
1161,51.4774,528
1162,51.5174,566
1163,51.5574,562
1164,51.5975,547
1165,51.6375,583
1166,51.6775,566
1167,51.7176,564
1168,51.7576,584
1169,51.7976,527
1170,51.8377,575
1171,51.8777,544
1172,51.9177,544
1173,51.9578,525
1174,51.9978,532
1175,52.0378,528
1176,52.0779,524
1177,52.1179,514
1178,52.1579,531
1179,52.198,537
1180,52.238,591
1181,52.278,512
1182,52.3181,545
1183,52.3581,549
1184,52.3981,540
1185,52.4382,557
1186,52.4782,565
1187,52.5182,535
1188,52.5583,521
1189,52.5983,573
1190,52.6383,552
1191,52.6784,538
1192,52.7184,541
1193,52.7584,542
1194,52.7984,518
1195,52.8385,529
1196,52.8785,502
1197,52.9185,509
1198,52.9586,509
1199,52.9986,527
1200,53.0386,566
1201,53.0787,540
1202,53.1187,519
1203,53.1587,579
1204,53.1988,528
1205,53.2388,517
1206,53.2788,532
1207,53.3189,537
1208,53.3589,556
1209,53.3989,486
1210,53.439,574
1211,53.479,491
1212,53.519,481
1213,53.5591,492
1214,53.5991,520
1215,53.6391,515
1216,53.6792,536
1217,53.7192,552
1218,53.7592,548
1219,53.7993,511
1220,53.8393,505
1221,53.8793,528
1222,53.9193,503
1223,53.9594,525
1224,53.9994,530
1225,54.0394,531
1226,54.0795,501
1227,54.1195,520
1228,54.1595,504
1229,54.1996,498
1230,54.2396,567
1231,54.2796,487
1232,54.3197,481
1233,54.3597,537
1234,54.3997,557
1235,54.4398,499
1236,54.4798,478
1237,54.5198,509
1238,54.5599,476
1239,54.5999,525
1240,54.6399,489
1241,54.68,478
1242,54.72,479
1243,54.76,499
1244,54.8001,506
1245,54.8401,465
1246,54.8801,499
1247,54.9202,494
1248,54.9602,512
1249,55.0002,519
1250,55.0402,534
1251,55.0803,520
1252,55.1203,507
1253,55.1603,490
1254,55.2004,454
1255,55.2404,453
1256,55.2804,481
1257,55.3205,491
1258,55.3605,507
1259,55.4005,484
1260,55.4406,511
1261,55.4806,460
1262,55.5206,468
1263,55.5607,477
1264,55.6007,458
1265,55.6407,457
1266,55.6808,468
1267,55.7208,483
1268,55.7608,494
1269,55.8009,486
1270,55.8409,453
1271,55.8809,459
1272,55.921,493
1273,55.961,457
1274,56.001,476
1275,56.0411,467
1276,56.0811,478
1277,56.1211,503
1278,56.1612,499
1279,56.2012,436
1280,56.2412,477
1281,56.2812,466
1282,56.3213,500
1283,56.3613,433
1284,56.4013,493
1285,56.4414,467
1286,56.4814,463
1287,56.5214,468
1288,56.5615,466
1289,56.6015,478
1290,56.6415,504
1291,56.6816,477
1292,56.7216,478
1293,56.7616,480
1294,56.8017,439
1295,56.8417,442
1296,56.8817,481
1297,56.9218,445
1298,56.9618,445
1299,57.0018,447
1300,57.0419,452
1301,57.0819,448
1302,57.1219,440
1303,57.162,472
1304,57.202,456
1305,57.242,433
1306,57.2821,458
1307,57.3221,441
1308,57.3621,435
1309,57.4021,456
1310,57.4422,478
1311,57.4822,456
1312,57.5222,487
1313,57.5623,392
1314,57.6023,433
1315,57.6423,452
1316,57.6824,469
1317,57.7224,438
1318,57.7624,444
1319,57.8025,474
1320,57.8425,448
1321,57.8825,433
1322,57.9226,445
1323,57.9626,434
1324,58.0026,447
1325,58.0427,395
1326,58.0827,416
1327,58.1227,410
1328,58.1628,445
1329,58.2028,431
1330,58.2428,456
1331,58.2829,459
1332,58.3229,393
1333,58.3629,412
1334,58.403,437
1335,58.443,426
1336,58.483,436
1337,58.5231,441
1338,58.5631,442
1339,58.6031,379
1340,58.6431,419
1341,58.6832,433
1342,58.7232,449
1343,58.7632,411
1344,58.8033,392
1345,58.8433,425
1346,58.8833,417
1347,58.9234,448
1348,58.9634,405
1349,59.0034,428
1350,59.0435,422
1351,59.0835,416
1352,59.1235,441
1353,59.1636,443
1354,59.2036,446
1355,59.2436,408
1356,59.2837,419
1357,59.3237,411
1358,59.3637,426
1359,59.4038,397
1360,59.4438,407
1361,59.4838,413
1362,59.5239,435
1363,59.5639,428
1364,59.6039,413
1365,59.644,412
1366,59.684,438
1367,59.724,454
1368,59.764,416
1369,59.8041,442
1370,59.8441,420
1371,59.8841,424
1372,59.9242,437
1373,59.9642,408
1374,60.0042,440
1375,60.0443,420
1376,60.0843,445
1377,60.1243,434
1378,60.1644,419
1379,60.2044,390
1380,60.2444,367
1381,60.2845,403
1382,60.3245,399
1383,60.3645,440
1384,60.4046,426
1385,60.4446,414
1386,60.4846,401
1387,60.5247,391
1388,60.5647,407
1389,60.6047,408
1390,60.6448,413
1391,60.6848,417
1392,60.7248,410
1393,60.7649,406
1394,60.8049,416
1395,60.8449,376
1396,60.885,418
1397,60.925,389
1398,60.965,402
1399,61.005,384
1400,61.0451,406
1401,61.0851,402
1402,61.1251,386
1403,61.1652,394
1404,61.2052,414
1405,61.2452,377
1406,61.2853,423
1407,61.3253,395
1408,61.3653,392
1409,61.4054,413
1410,61.4454,406
1411,61.4854,381
1412,61.5255,385
1413,61.5655,383
1414,61.6055,403
1415,61.6456,433
1416,61.6856,370
1417,61.7256,413
1418,61.7657,422
1419,61.8057,404
1420,61.8457,379
1421,61.8858,397
1422,61.9258,401
1423,61.9658,366
1424,62.0059,355
1425,62.0459,398
1426,62.0859,377
1427,62.1259,387
1428,62.166,451
1429,62.206,363
1430,62.246,398
1431,62.2861,352
1432,62.3261,391
1433,62.3661,362
1434,62.4062,402
1435,62.4462,374
1436,62.4862,389
1437,62.5263,397
1438,62.5663,376
1439,62.6063,394
1440,62.6464,409
1441,62.6864,364
1442,62.7264,398
1443,62.7665,365
1444,62.8065,391
1445,62.8465,340
1446,62.8866,403
1447,62.9266,376
1448,62.9666,376
1449,63.0067,356
1450,63.0467,395
1451,63.0867,371
1452,63.1268,403
1453,63.1668,405
1454,63.2068,404
1455,63.2469,374
1456,63.2869,385
1457,63.3269,367
1458,63.3669,400
1459,63.407,385
1460,63.447,379
1461,63.487,366
1462,63.5271,360
1463,63.5671,392
1464,63.6071,410
1465,63.6472,362
1466,63.6872,372
1467,63.7272,389
1468,63.7673,378
1469,63.8073,375
1470,63.8473,390
1471,63.8874,380
1472,63.9274,408
1473,63.9674,391
1474,64.0075,378
1475,64.0475,361
1476,64.0875,401
1477,64.1276,388
1478,64.1676,377
1479,64.2076,418
1480,64.2477,391
1481,64.2877,377
1482,64.3277,450
1483,64.3678,384
1484,64.4078,377
1485,64.4478,414
1486,64.4878,366
1487,64.5279,350
1488,64.5679,379
1489,64.6079,368
1490,64.648,372
1491,64.688,380
1492,64.728,363
1493,64.7681,402
1494,64.8081,341
1495,64.8481,352
1496,64.8882,377
1497,64.9282,380
1498,64.9682,369
1499,65.0083,355
1500,65.0483,344
1501,65.0883,358
1502,65.1284,357
1503,65.1684,360
1504,65.2084,363
1505,65.2485,353
1506,65.2885,342
1507,65.3285,349
1508,65.3686,370
1509,65.4086,383
1510,65.4486,331
1511,65.4887,355
1512,65.5287,370
1513,65.5687,382
1514,65.6088,391
1515,65.6488,344
1516,65.6888,368
1517,65.7288,386
1518,65.7689,357
1519,65.8089,360
1520,65.8489,353
1521,65.889,344
1522,65.929,375
1523,65.969,362
1524,66.0091,366
1525,66.0491,385
1526,66.0891,370
1527,66.1292,371
1528,66.1692,368
1529,66.2092,365
1530,66.2493,433
1531,66.2893,361
1532,66.3293,392
1533,66.3694,336
1534,66.4094,355
1535,66.4494,350
1536,66.4895,374
1537,66.5295,365
1538,66.5695,349
1539,66.6096,327
1540,66.6496,391
1541,66.6896,371
1542,66.7297,376
1543,66.7697,383
1544,66.8097,333
1545,66.8497,373
1546,66.8898,358
1547,66.9298,375
1548,66.9698,337
1549,67.0099,349
1550,67.0499,352
1551,67.0899,325
1552,67.13,397
1553,67.17,374
1554,67.21,349
1555,67.2501,344
1556,67.2901,351
1557,67.3301,390
1558,67.3702,389
1559,67.4102,346
1560,67.4502,363
1561,67.4903,341
1562,67.5303,357
1563,67.5703,377
1564,67.6104,332
1565,67.6504,385
1566,67.6904,371
1567,67.7305,395
1568,67.7705,371
1569,67.8105,373
1570,67.8506,368
1571,67.8906,379
1572,67.9306,378
1573,67.9707,367
1574,68.0107,352
1575,68.0507,357
1576,68.0907,352
1577,68.1308,351
1578,68.1708,373
1579,68.2108,356
1580,68.2509,346
1581,68.2909,362
1582,68.3309,378
1583,68.371,348
1584,68.411,371
1585,68.451,345
1586,68.4911,348
1587,68.5311,405
1588,68.5711,377
1589,68.6112,383
1590,68.6512,338
1591,68.6912,339
1592,68.7313,340
1593,68.7713,369
1594,68.8113,364
1595,68.8514,323
1596,68.8914,316
1597,68.9314,368
1598,68.9715,330
1599,69.0115,380
1600,69.0515,346
1601,69.0916,347
1602,69.1316,355
1603,69.1716,324
1604,69.2116,380
1605,69.2517,344
1606,69.2917,358
1607,69.3317,332
1608,69.3718,388
1609,69.4118,359
1610,69.4518,343
1611,69.4919,357
1612,69.5319,376
1613,69.5719,343
1614,69.612,352
1615,69.652,359
1616,69.692,327
1617,69.7321,345
1618,69.7721,359
1619,69.8121,369
1620,69.8522,395
1621,69.8922,369
1622,69.9322,363
1623,69.9723,350
1624,70.0123,336
1625,70.0523,356
1626,70.0924,385
1627,70.1324,344
1628,70.1724,354
1629,70.2125,374
1630,70.2525,373
1631,70.2925,344
1632,70.3326,339
1633,70.3726,353
1634,70.4126,340
1635,70.4526,320
1636,70.4927,348
1637,70.5327,360
1638,70.5727,353
1639,70.6128,332
1640,70.6528,385
1641,70.6928,357
1642,70.7329,419
1643,70.7729,330
1644,70.8129,378
1645,70.853,359
1646,70.893,353
1647,70.933,342
1648,70.9731,325
1649,71.0131,353
1650,71.0531,359
1651,71.0932,363
1652,71.1332,357
1653,71.1732,340
1654,71.2133,340
1655,71.2533,363
1656,71.2933,330
1657,71.3334,351
1658,71.3734,350
1659,71.4134,361
1660,71.4535,330
1661,71.4935,337
1662,71.5335,392
1663,71.5735,341
1664,71.6136,349
1665,71.6536,316
1666,71.6936,366
1667,71.7337,333
1668,71.7737,314
1669,71.8137,315
1670,71.8538,355
1671,71.8938,372
1672,71.9338,348
1673,71.9739,322
1674,72.0139,340
1675,72.0539,360
1676,72.094,349
1677,72.134,355
1678,72.174,343
1679,72.2141,301
1680,72.2541,346
1681,72.2941,344
1682,72.3342,361
1683,72.3742,349
1684,72.4142,381
1685,72.4543,356
1686,72.4943,329
1687,72.5343,351
1688,72.5744,340
1689,72.6144,325
1690,72.6544,340
1691,72.6945,367
1692,72.7345,316
1693,72.7745,352
1694,72.8145,348
1695,72.8546,362
1696,72.8946,349
1697,72.9346,373
1698,72.9747,358
1699,73.0147,340
1700,73.0547,368
1701,73.0948,358
1702,73.1348,337
1703,73.1748,343
1704,73.2149,334
1705,73.2549,365
1706,73.2949,348
1707,73.335,351
1708,73.375,353
1709,73.415,341
1710,73.4551,376
1711,73.4951,344
1712,73.5351,378
1713,73.5752,348
1714,73.6152,339
1715,73.6552,342
1716,73.6953,332
1717,73.7353,358
1718,73.7753,365
1719,73.8154,374
1720,73.8554,335
1721,73.8954,347
1722,73.9354,376
1723,73.9755,332
1724,74.0155,343
1725,74.0555,370
1726,74.0956,345
1727,74.1356,351
1728,74.1756,364
1729,74.2157,326
1730,74.2557,334
1731,74.2957,361
1732,74.3358,367
1733,74.3758,344
1734,74.4158,338
1735,74.4559,360
1736,74.4959,321
1737,74.5359,391
1738,74.576,325
1739,74.616,362
1740,74.656,352
1741,74.6961,371
1742,74.7361,325
1743,74.7761,351
1744,74.8162,370
1745,74.8562,330
1746,74.8962,322
1747,74.9363,356
1748,74.9763,326
1749,75.0163,324
1750,75.0563,345
1751,75.0964,339
1752,75.1364,345
1753,75.1764,327
1754,75.2165,348
1755,75.2565,325
1756,75.2965,355
1757,75.3366,332
1758,75.3766,354
1759,75.4166,323
1760,75.4567,332
1761,75.4967,336
1762,75.5367,350
1763,75.5768,334
1764,75.6168,363
1765,75.6568,370
1766,75.6969,395
1767,75.7369,350
1768,75.7769,371
1769,75.817,356
1770,75.857,344
1771,75.897,343
1772,75.9371,335
1773,75.9771,343
1774,76.0171,360
1775,76.0572,357
1776,76.0972,369
1777,76.1372,329
1778,76.1773,372
1779,76.2173,355
1780,76.2573,344
1781,76.2973,320
1782,76.3374,338
1783,76.3774,342
1784,76.4174,344
1785,76.4575,329
1786,76.4975,312
1787,76.5375,367
1788,76.5776,378
1789,76.6176,335
1790,76.6576,332
1791,76.6977,333
1792,76.7377,363
1793,76.7777,325
1794,76.8178,336
1795,76.8578,332
1796,76.8978,361
1797,76.9379,314
1798,76.9779,324
1799,77.0179,367
1800,77.058,355
1801,77.098,333
1802,77.138,348
1803,77.1781,335
1804,77.2181,321
1805,77.2581,349
1806,77.2982,328
1807,77.3382,359
1808,77.3782,328
1809,77.4182,363
1810,77.4583,347
1811,77.4983,346
1812,77.5383,369
1813,77.5784,297
1814,77.6184,368
1815,77.6584,375
1816,77.6985,335
1817,77.7385,321
1818,77.7785,318
1819,77.8186,364
1820,77.8586,348
1821,77.8986,322
1822,77.9387,343
1823,77.9787,362
1824,78.0187,355
1825,78.0588,346
1826,78.0988,350
1827,78.1388,346
1828,78.1789,354
1829,78.2189,327
1830,78.2589,354
1831,78.299,345
1832,78.339,324
1833,78.379,352
1834,78.4191,335
1835,78.4591,360
1836,78.4991,313
