,     Angle,       PSD
0,5.0,2304
1,5.04003,2334
2,5.08006,2286
3,5.1201,2365
4,5.16013,2344
5,5.20016,2271
6,5.24019,2252
7,5.28023,2173
8,5.32026,2230
9,5.36029,2269
10,5.40032,2248
11,5.44035,2162
12,5.48039,2175
13,5.52042,2215
14,5.56045,2217
15,5.60048,2139
16,5.64052,2095
17,5.68055,2118
18,5.72058,2148
19,5.76061,2050
20,5.80064,2137
21,5.84068,2141
22,5.88071,2045
23,5.92074,1979
24,5.96077,2041
25,6.0008,2071
26,6.04084,2019
27,6.08087,1995
28,6.1209,1946
29,6.16093,1999
30,6.20097,1993
31,6.241,2051
32,6.28103,2035
33,6.32106,2022
34,6.36109,1934
35,6.40113,1994
36,6.44116,1890
37,6.48119,1877
38,6.52122,1903
39,6.56126,1937
40,6.60129,1971
41,6.64132,1882
42,6.68135,1913
43,6.72138,1900
44,6.76142,1840
45,6.80145,1905
46,6.84148,1859
47,6.88151,1921
48,6.92155,1820
49,6.96158,1899
50,7.00161,1912
51,7.04164,1848
52,7.08167,1889
53,7.12171,1941
54,7.16174,1768
55,7.20177,1767
56,7.2418,1825
57,7.28184,1797
58,7.32187,1807
59,7.3619,1801
60,7.40193,1735
61,7.44196,1734
62,7.482,1832
63,7.52203,1813
64,7.56206,1767
65,7.60209,1768
66,7.64213,1876
67,7.68216,1873
68,7.72219,1747
69,7.76222,1810
70,7.80225,1849
71,7.84229,1828
72,7.88232,1839
73,7.92235,1766
74,7.96238,1780
75,8.00241,1836
76,8.04245,1814
77,8.08248,1868
78,8.12251,1845
79,8.16254,1862
80,8.20258,1813
81,8.24261,1779
82,8.28264,1846
83,8.32267,1876
84,8.3627,1730
85,8.40274,1759
86,8.44277,1796
87,8.4828,1758
88,8.52283,1771
89,8.56287,1837
90,8.6029,1801
91,8.64293,1795
92,8.68296,1810
93,8.72299,1838
94,8.76303,1851
95,8.80306,1846
96,8.84309,1768
97,8.88312,1796
98,8.92316,1843
99,8.96319,1894
100,9.00322,1793
101,9.04325,1772
102,9.08328,1806
103,9.12332,1812
104,9.16335,1789
105,9.20338,1810
106,9.24341,1882
107,9.28345,1861
108,9.32348,1723
109,9.36351,1765
110,9.40354,1875
111,9.44357,1826
112,9.48361,1878
113,9.52364,1788
114,9.56367,1824
115,9.6037,1807
116,9.64374,1839
117,9.68377,1821
118,9.7238,1944
119,9.76383,1842
120,9.80386,1814
121,9.8439,1826
122,9.88393,1820
123,9.92396,1946
124,9.96399,1902
125,10.004,1907
126,10.0441,1882
127,10.0841,1889
128,10.1241,1914
129,10.1642,1931
130,10.2042,1860
131,10.2442,1923
132,10.2843,1881
133,10.3243,1951
134,10.3643,1837
135,10.4043,1917
136,10.4444,1886
137,10.4844,1971
138,10.5244,1991
139,10.5645,1967
140,10.6045,1925
141,10.6445,1882
142,10.6846,1963
143,10.7246,1957
144,10.7646,1974
145,10.8047,2021
146,10.8447,1969
147,10.8847,1925
148,10.9248,2045
149,10.9648,2044
150,11.0048,2032
151,11.0449,1994
152,11.0849,2030
153,11.1249,2081
154,11.165,2032
155,11.205,2058
156,11.245,2091
157,11.2851,2044
158,11.3251,2013
159,11.3651,2115
160,11.4052,2186
161,11.4452,2159
162,11.4852,2216
163,11.5252,2184
164,11.5653,2091
165,11.6053,2239
166,11.6453,2109
167,11.6854,2245
168,11.7254,2208
169,11.7654,2222
170,11.8055,2371
171,11.8455,2295
172,11.8855,2402
173,11.9256,2386
174,11.9656,2359
175,12.0056,2439
176,12.0457,2256
177,12.0857,2313
178,12.1257,2282
179,12.1658,2249
180,12.2058,2363
181,12.2458,2225
182,12.2859,2293
183,12.3259,2251
184,12.3659,2285
185,12.406,2289
186,12.446,2328
187,12.486,2291
188,12.5261,2315
189,12.5661,2366
190,12.6061,2305
191,12.6462,2372
192,12.6862,2328
193,12.7262,2273
194,12.7662,2372
195,12.8063,2307
196,12.8463,2305
197,12.8863,2358
198,12.9264,2362
199,12.9664,2358
200,13.0064,2236
201,13.0465,2321
202,13.0865,2353
203,13.1265,2423
204,13.1666,2380
205,13.2066,2343
206,13.2466,2322
207,13.2867,2453
208,13.3267,2372
209,13.3667,2413
210,13.4068,2420
211,13.4468,2429
212,13.4868,2399
213,13.5269,2420
214,13.5669,2370
215,13.6069,2384
216,13.647,2395
217,13.687,2337
218,13.727,2499
219,13.7671,2408
220,13.8071,2447
221,13.8471,2376
222,13.8871,2469
223,13.9272,2410
224,13.9672,2388
225,14.0072,2471
226,14.0473,2475
227,14.0873,2507
228,14.1273,2526
229,14.1674,2562
230,14.2074,2459
231,14.2474,2596
232,14.2875,2510
233,14.3275,2506
234,14.3675,2547
235,14.4076,2514
236,14.4476,2490
237,14.4876,2570
238,14.5277,2490
239,14.5677,2491
240,14.6077,2548
241,14.6478,2510
242,14.6878,2545
243,14.7278,2572
244,14.7679,2589
245,14.8079,2597
246,14.8479,2677
247,14.888,2639
248,14.928,2619
249,14.968,2596
250,15.008,2524
251,15.0481,2585
252,15.0881,2663
253,15.1281,2548
254,15.1682,2553
255,15.2082,2520
256,15.2482,2587
257,15.2883,2643
258,15.3283,2550
259,15.3683,2745
260,15.4084,2627
261,15.4484,2745
262,15.4884,2703
263,15.5285,2605
264,15.5685,2511
265,15.6085,2548
266,15.6486,2647
267,15.6886,2621
268,15.7286,2767
269,15.7687,2684
270,15.8087,2645
271,15.8487,2569
272,15.8888,2700
273,15.9288,2792
274,15.9688,2730
275,16.0089,2659
276,16.0489,2873
277,16.0889,2689
278,16.129,2801
279,16.169,2591
280,16.209,2720
281,16.249,2766
282,16.2891,2672
283,16.3291,2741
284,16.3691,2671
285,16.4092,2667
286,16.4492,2615
287,16.4892,2697
288,16.5293,2672
289,16.5693,2782
290,16.6093,2644
291,16.6494,2676
292,16.6894,2652
293,16.7294,2751
294,16.7695,2794
295,16.8095,2690
296,16.8495,2715
297,16.8896,2746
298,16.9296,2693
299,16.9696,2761
300,17.0097,2728
301,17.0497,2750
302,17.0897,2729
303,17.1298,2715
304,17.1698,2781
305,17.2098,2743
306,17.2499,2729
307,17.2899,2747
308,17.3299,2793
309,17.3699,2763
310,17.41,2819
311,17.45,2753
312,17.49,2779
313,17.5301,2796
314,17.5701,2750
315,17.6101,2753
316,17.6502,2766
317,17.6902,2869
318,17.7302,2864
319,17.7703,2755
320,17.8103,2786
321,17.8503,2749
322,17.8904,2804
323,17.9304,2833
324,17.9704,2823
325,18.0105,2889
326,18.0505,2780
327,18.0905,2873
328,18.1306,2828
329,18.1706,2780
330,18.2106,2861
331,18.2507,2788
332,18.2907,2907
333,18.3307,2981
334,18.3708,2823
335,18.4108,2748
336,18.4508,2870
337,18.4909,2874
338,18.5309,2872
339,18.5709,2816
340,18.6109,2893
341,18.651,2935
342,18.691,2940
343,18.731,3016
344,18.7711,3084
345,18.8111,2937
346,18.8511,2993
347,18.8912,2954
348,18.9312,3036
349,18.9712,3017
350,19.0113,3003
351,19.0513,3021
352,19.0913,3026
353,19.1314,2999
354,19.1714,2978
355,19.2114,3010
356,19.2515,2932
357,19.2915,3002
358,19.3315,3015
359,19.3716,2973
360,19.4116,3041
361,19.4516,3073
362,19.4917,3100
363,19.5317,3112
364,19.5717,3028
365,19.6118,3130
366,19.6518,3074
367,19.6918,3048
368,19.7318,3058
369,19.7719,3111
370,19.8119,3081
371,19.8519,3160
372,19.892,3074
373,19.932,3185
374,19.972,3207
375,20.0121,3112
376,20.0521,3169
377,20.0921,3214
378,20.1322,3162
379,20.1722,3104
380,20.2122,3110
381,20.2523,3224
382,20.2923,3105
383,20.3323,3216
384,20.3724,3151
385,20.4124,3128
386,20.4524,3071
387,20.4925,3076
388,20.5325,3195
389,20.5725,3106
390,20.6126,3077
391,20.6526,3125
392,20.6926,3102
393,20.7327,3162
394,20.7727,3102
395,20.8127,3146
396,20.8528,3117
397,20.8928,3093
398,20.9328,3088
399,20.9728,3111
400,21.0129,3157
401,21.0529,3028
402,21.0929,3054
403,21.133,2996
404,21.173,2952
405,21.213,3020
406,21.2531,3055
407,21.2931,2986
408,21.3331,2914
409,21.3732,3010
410,21.4132,2912
411,21.4532,2884
412,21.4933,2957
413,21.5333,2999
414,21.5733,2977
415,21.6134,2953
416,21.6534,2928
417,21.6934,2824
418,21.7335,2899
419,21.7735,2806
420,21.8135,2802
421,21.8536,2898
422,21.8936,2924
423,21.9336,2782
424,21.9737,2842
425,22.0137,2749
426,22.0537,2749
427,22.0937,2729
428,22.1338,2791
429,22.1738,2667
430,22.2138,2731
431,22.2539,2715
432,22.2939,2634
433,22.3339,2650
434,22.374,2631
435,22.414,2680
436,22.454,2610
437,22.4941,2585
438,22.5341,2601
439,22.5741,2519
440,22.6142,2513
441,22.6542,2511
442,22.6942,2455
443,22.7343,2501
444,22.7743,2420
445,22.8143,2437
446,22.8544,2463
447,22.8944,2370
448,22.9344,2330
449,22.9745,2376
450,23.0145,2363
451,23.0545,2280
452,23.0946,2401
453,23.1346,2299
454,23.1746,2246
455,23.2147,2200
456,23.2547,2189
457,23.2947,2201
458,23.3347,2284
459,23.3748,2211
460,23.4148,2267
461,23.4548,2163
462,23.4949,2104
463,23.5349,2110
464,23.5749,2213
465,23.615,2180
466,23.655,2138
467,23.695,2071
468,23.7351,2013
469,23.7751,2050
470,23.8151,1970
471,23.8552,2057
472,23.8952,1921
473,23.9352,2094
474,23.9753,1961
475,24.0153,1914
476,24.0553,1961
477,24.0954,1953
478,24.1354,1913
479,24.1754,1934
480,24.2155,1973
481,24.2555,1925
482,24.2955,1812
483,24.3356,1892
484,24.3756,1875
485,24.4156,1873
486,24.4556,1791
487,24.4957,1800
488,24.5357,1885
489,24.5757,1766
490,24.6158,1845
491,24.6558,1867
492,24.6958,1738
493,24.7359,1791
494,24.7759,1769
495,24.8159,1774
496,24.856,1774
497,24.896,1720
498,24.936,1763
499,24.9761,1667
500,25.0161,1752
501,25.0561,1639
502,25.0962,1763
503,25.1362,1704
504,25.1762,1683
505,25.2163,1675
506,25.2563,1650
507,25.2963,1651
508,25.3364,1674
509,25.3764,1669
510,25.4164,1606
511,25.4565,1631
512,25.4965,1695
513,25.5365,1668
514,25.5766,1570
515,25.6166,1604
516,25.6566,1644
517,25.6966,1590
518,25.7367,1652
519,25.7767,1623
520,25.8167,1537
521,25.8568,1520
522,25.8968,1598
523,25.9368,1515
524,25.9769,1539
525,26.0169,1468
526,26.0569,1589
527,26.097,1581
528,26.137,1546
529,26.177,1544
530,26.2171,1525
531,26.2571,1575
532,26.2971,1597
533,26.3372,1491
534,26.3772,1544
535,26.4172,1513
536,26.4573,1539
537,26.4973,1541
538,26.5373,1550
539,26.5774,1532
540,26.6174,1535
541,26.6574,1551
542,26.6975,1461
543,26.7375,1534
544,26.7775,1488
545,26.8175,1468
546,26.8576,1452
547,26.8976,1418
548,26.9376,1436
549,26.9777,1406
550,27.0177,1438
551,27.0577,1433
552,27.0978,1495
553,27.1378,1484
554,27.1778,1440
555,27.2179,1399
556,27.2579,1485
557,27.2979,1394
558,27.338,1343
559,27.378,1434
560,27.418,1388
561,27.4581,1446
562,27.4981,1367
563,27.5381,1453
564,27.5782,1352
565,27.6182,1386
566,27.6582,1386
567,27.6983,1436
568,27.7383,1306
569,27.7783,1351
570,27.8184,1372
571,27.8584,1375
572,27.8984,1383
573,27.9385,1365
574,27.9785,1369
575,28.0185,1374
576,28.0585,1322
577,28.0986,1357
578,28.1386,1464
579,28.1786,1364
580,28.2187,1292
581,28.2587,1346
582,28.2987,1337
583,28.3388,1314
584,28.3788,1341
585,28.4188,1305
586,28.4589,1332
587,28.4989,1369
588,28.5389,1310
589,28.579,1290
590,28.619,1297
591,28.659,1327
592,28.6991,1366
593,28.7391,1270
594,28.7791,1306
595,28.8192,1293
596,28.8592,1307
597,28.8992,1284
598,28.9393,1260
599,28.9793,1215
600,29.0193,1289
601,29.0594,1325
602,29.0994,1334
603,29.1394,1240
604,29.1794,1268
605,29.2195,1281
606,29.2595,1236
607,29.2995,1280
608,29.3396,1234
609,29.3796,1242
610,29.4196,1223
611,29.4597,1240
612,29.4997,1305
613,29.5397,1208
614,29.5798,1293
615,29.6198,1251
616,29.6598,1209
617,29.6999,1237
618,29.7399,1240
619,29.7799,1226
620,29.82,1205
621,29.86,1228
622,29.9,1283
623,29.9401,1228
624,29.9801,1207
625,30.0201,1201
626,30.0602,1148
627,30.1002,1204
628,30.1402,1272
629,30.1803,1220
630,30.2203,1188
631,30.2603,1241
632,30.3004,1211
633,30.3404,1196
634,30.3804,1197
635,30.4204,1159
636,30.4605,1176
637,30.5005,1190
638,30.5405,1181
639,30.5806,1178
640,30.6206,1162
641,30.6606,1189
642,30.7007,1192
643,30.7407,1162
644,30.7807,1148
645,30.8208,1196
646,30.8608,1151
647,30.9008,1162
648,30.9409,1156
649,30.9809,1238
650,31.0209,1146
651,31.061,1201
652,31.101,1099
653,31.141,1176
654,31.1811,1078
655,31.2211,1133
656,31.2611,1165
657,31.3012,1158
658,31.3412,1132
659,31.3812,1099
660,31.4213,1164
661,31.4613,1122
662,31.5013,1108
663,31.5413,1146
664,31.5814,1123
665,31.6214,1169
666,31.6614,1172
667,31.7015,1161
668,31.7415,1133
669,31.7815,1178
670,31.8216,1104
671,31.8616,1135
672,31.9016,1142
673,31.9417,1137
674,31.9817,1180
675,32.0217,1157
676,32.0618,1172
677,32.1018,1127
678,32.1418,1143
679,32.1819,1090
680,32.2219,1131
681,32.2619,1150
682,32.302,1106
683,32.342,1063
684,32.382,1085
685,32.4221,1133
686,32.4621,1144
687,32.5021,1151
688,32.5422,1112
689,32.5822,1124
690,32.6222,1061
691,32.6623,1120
692,32.7023,1098
693,32.7423,1121
694,32.7823,1055
695,32.8224,1107
696,32.8624,1125
697,32.9024,1132
698,32.9425,1106
699,32.9825,1083
700,33.0225,1164
701,33.0626,1116
702,33.1026,1081
703,33.1426,1107
704,33.1827,1085
705,33.2227,1104
706,33.2627,1149
707,33.3028,1136
708,33.3428,1151
709,33.3828,1082
710,33.4229,1149
711,33.4629,1124
712,33.5029,1112
713,33.543,1016
714,33.583,1121
715,33.623,1149
716,33.6631,1121
717,33.7031,1125
718,33.7431,1138
719,33.7832,1156
720,33.8232,1074
721,33.8632,1107
722,33.9032,1138
723,33.9433,1180
724,33.9833,1125
725,34.0233,1177
726,34.0634,1133
727,34.1034,1098
728,34.1434,1098
729,34.1835,1103
730,34.2235,1119
731,34.2635,1110
732,34.3036,1130
733,34.3436,1141
734,34.3836,1108
735,34.4237,1085
736,34.4637,1136
737,34.5037,1101
738,34.5438,1126
739,34.5838,1149
740,34.6238,1149
741,34.6639,1162
742,34.7039,1141
743,34.7439,1178
744,34.784,1176
745,34.824,1126
746,34.864,1227
747,34.9041,1141
748,34.9441,1116
749,34.9841,1085
750,35.0241,1102
751,35.0642,1080
752,35.1042,1081
753,35.1442,1096
754,35.1843,1103
755,35.2243,1154
756,35.2643,1167
757,35.3044,1095
758,35.3444,1075
759,35.3844,1154
760,35.4245,1094
761,35.4645,1076
762,35.5045,1105
763,35.5446,1017
764,35.5846,1074
765,35.6246,1071
766,35.6647,1055
767,35.7047,1122
768,35.7447,1121
769,35.7848,1132
770,35.8248,1038
771,35.8648,1085
772,35.9049,1114
773,35.9449,1122
774,35.9849,1187
775,36.025,1082
776,36.065,1126
777,36.105,1124
778,36.1451,1163
779,36.1851,1058
780,36.2251,1157
781,36.2651,1145
782,36.3052,1058
783,36.3452,999
784,36.3852,1070
785,36.4253,1124
786,36.4653,1130
787,36.5053,1088
788,36.5454,1052
789,36.5854,1063
790,36.6254,1058
791,36.6655,1067
792,36.7055,1073
793,36.7455,1129
794,36.7856,1028
795,36.8256,1079
796,36.8656,1097
797,36.9057,1115
798,36.9457,1098
799,36.9857,1109
800,37.0258,1129
801,37.0658,1028
802,37.1058,1080
803,37.1459,1092
804,37.1859,1083
805,37.2259,1077
806,37.266,1113
807,37.306,1068
808,37.346,1014
809,37.386,1075
810,37.4261,1134
811,37.4661,1073
812,37.5061,1060
813,37.5462,1034
814,37.5862,1034
815,37.6262,1040
816,37.6663,1007
817,37.7063,1057
818,37.7463,1064
819,37.7864,1021
820,37.8264,1029
821,37.8664,981
822,37.9065,1059
823,37.9465,1102
824,37.9865,1054
825,38.0266,1039
826,38.0666,1110
827,38.1066,1028
828,38.1467,1003
829,38.1867,1090
830,38.2267,1039
831,38.2668,1054
832,38.3068,989
833,38.3468,1087
834,38.3869,1005
835,38.4269,1053
836,38.4669,1065
837,38.507,1041
838,38.547,1011
839,38.587,1082
840,38.627,1086
841,38.6671,1048
842,38.7071,1038
843,38.7471,1081
844,38.7872,1017
845,38.8272,1063
846,38.8672,1071
847,38.9073,1074
848,38.9473,1125
849,38.9873,969
850,39.0274,982
851,39.0674,1051
852,39.1074,1055
853,39.1475,997
854,39.1875,1030
855,39.2275,1039
856,39.2676,1082
857,39.3076,998
858,39.3476,1085
859,39.3877,1029
860,39.4277,1007
861,39.4677,1069
862,39.5078,1036
863,39.5478,1029
864,39.5878,1065
865,39.6279,1020
866,39.6679,1016
867,39.7079,969
868,39.7479,997
869,39.788,999
870,39.828,1082
871,39.868,1029
872,39.9081,1017
873,39.9481,1025
874,39.9881,1029
875,40.0282,1043
876,40.0682,1013
877,40.1082,1007
878,40.1483,998
879,40.1883,1022
880,40.2283,998
881,40.2684,970
882,40.3084,997
883,40.3484,993
884,40.3885,962
885,40.4285,965
886,40.4685,975
887,40.5086,989
888,40.5486,1068
889,40.5886,992
890,40.6287,922
891,40.6687,1016
892,40.7087,1017
893,40.7488,997
894,40.7888,1000
895,40.8288,1014
896,40.8689,1053
897,40.9089,1011
898,40.9489,1009
899,40.9889,971
900,41.029,955
901,41.069,973
902,41.109,958
903,41.1491,954
904,41.1891,999
905,41.2291,963
906,41.2692,994
907,41.3092,1013
908,41.3492,928
909,41.3893,972
910,41.4293,1022
911,41.4693,929
912,41.5094,964
913,41.5494,1013
914,41.5894,983
915,41.6295,919
916,41.6695,892
917,41.7095,957
918,41.7496,941
919,41.7896,942
920,41.8296,922
921,41.8697,989
922,41.9097,964
923,41.9497,970
924,41.9898,976
925,42.0298,943
926,42.0698,1000
927,42.1098,949
928,42.1499,888
929,42.1899,941
930,42.2299,919
931,42.27,929
932,42.31,905
933,42.35,939
934,42.3901,966
935,42.4301,953
936,42.4701,989
937,42.5102,927
938,42.5502,871
939,42.5902,959
940,42.6303,922
941,42.6703,900
942,42.7103,912
943,42.7504,875
944,42.7904,917
945,42.8304,901
946,42.8705,894
947,42.9105,981
948,42.9505,940
949,42.9906,921
950,43.0306,946
951,43.0706,930
952,43.1107,940
953,43.1507,904
954,43.1907,925
955,43.2308,901
956,43.2708,909
957,43.3108,863
958,43.3508,918
959,43.3909,838
960,43.4309,886
961,43.4709,889
962,43.511,927
963,43.551,911
964,43.591,904
965,43.6311,842
966,43.6711,897
967,43.7111,866
968,43.7512,845
969,43.7912,862
970,43.8312,934
971,43.8713,834
972,43.9113,804
973,43.9513,876
974,43.9914,928
975,44.0314,831
976,44.0714,869
977,44.1115,881
978,44.1515,906
979,44.1915,854
980,44.2316,829
981,44.2716,871
982,44.3116,835
983,44.3517,845
984,44.3917,867
985,44.4317,828
986,44.4717,851
987,44.5118,779
988,44.5518,913
989,44.5918,804
990,44.6319,881
991,44.6719,825
992,44.7119,848
993,44.752,823
994,44.792,810
995,44.832,840
996,44.8721,858
997,44.9121,828
998,44.9521,840
999,44.9922,890
1000,45.0322,856
1001,45.0722,809
1002,45.1123,861
1003,45.1523,828
1004,45.1923,822
1005,45.2324,849
1006,45.2724,799
1007,45.3124,796
1008,45.3525,803
1009,45.3925,779
1010,45.4325,863
1011,45.4726,791
1012,45.5126,879
1013,45.5526,818
1014,45.5927,813
1015,45.6327,797
1016,45.6727,827
1017,45.7127,769
1018,45.7528,756
1019,45.7928,764
1020,45.8328,829
1021,45.8729,792
1022,45.9129,805
1023,45.9529,752
1024,45.993,833
1025,46.033,763
1026,46.073,796
1027,46.1131,839
1028,46.1531,805
1029,46.1931,763
1030,46.2332,793
1031,46.2732,776
1032,46.3132,796
1033,46.3533,767
1034,46.3933,829
1035,46.4333,773
1036,46.4734,780
1037,46.5134,789
1038,46.5534,788
1039,46.5935,781
1040,46.6335,738
1041,46.6735,717
1042,46.7136,758
1043,46.7536,764
1044,46.7936,766
1045,46.8336,759
1046,46.8737,767
1047,46.9137,762
1048,46.9537,706
1049,46.9938,726
1050,47.0338,801
1051,47.0738,744
1052,47.1139,741
1053,47.1539,743
1054,47.1939,759
1055,47.234,727
1056,47.274,754
1057,47.314,732
1058,47.3541,699
1059,47.3941,719
1060,47.4341,736
1061,47.4742,696
1062,47.5142,745
1063,47.5542,711
1064,47.5943,747
1065,47.6343,720
1066,47.6743,697
1067,47.7144,741
1068,47.7544,719
1069,47.7944,712
1070,47.8345,651
1071,47.8745,724
1072,47.9145,727
1073,47.9546,663
1074,47.9946,652
1075,48.0346,657
1076,48.0746,686
1077,48.1147,713
1078,48.1547,696
1079,48.1947,687
1080,48.2348,681
1081,48.2748,696
1082,48.3148,715
1083,48.3549,695
1084,48.3949,722
1085,48.4349,680
1086,48.475,725
1087,48.515,711
1088,48.555,689
1089,48.5951,652
1090,48.6351,641
1091,48.6751,644
1092,48.7152,677
1093,48.7552,697
1094,48.7952,674
1095,48.8353,634
1096,48.8753,700
1097,48.9153,638
1098,48.9554,650
1099,48.9954,651
1100,49.0354,636
1101,49.0755,688
1102,49.1155,616
1103,49.1555,611
1104,49.1955,689
1105,49.2356,642
1106,49.2756,633
1107,49.3156,636
1108,49.3557,700
1109,49.3957,669
1110,49.4357,682
1111,49.4758,658
1112,49.5158,634
1113,49.5558,627
1114,49.5959,616
1115,49.6359,639
1116,49.6759,633
1117,49.716,684
1118,49.756,655
1119,49.796,657
1120,49.8361,580
1121,49.8761,643
1122,49.9161,614
1123,49.9562,635
1124,49.9962,635
1125,50.0362,625
1126,50.0763,614
1127,50.1163,583
1128,50.1563,626
1129,50.1964,608
1130,50.2364,613
1131,50.2764,633
1132,50.3165,639
1133,50.3565,610
1134,50.3965,597
1135,50.4365,605
1136,50.4766,618
1137,50.5166,569
1138,50.5566,603
1139,50.5967,595
1140,50.6367,608
1141,50.6767,575
1142,50.7168,602
1143,50.7568,629
1144,50.7968,582
1145,50.8369,611
1146,50.8769,575
1147,50.9169,591
1148,50.957,601
1149,50.997,587
1150,51.037,527
1151,51.0771,619
1152,51.1171,602
1153,51.1571,571
1154,51.1972,559
1155,51.2372,568
1156,51.2772,595
1157,51.3173,560
1158,51.3573,554
1159,51.3973,633
1160,51.4374,604
1161,51.4774,577
1162,51.5174,593
1163,51.5574,578
1164,51.5975,582
1165,51.6375,537
1166,51.6775,582
1167,51.7176,607
1168,51.7576,548
1169,51.7976,582
1170,51.8377,562
1171,51.8777,530
1172,51.9177,542
1173,51.9578,513
1174,51.9978,620
1175,52.0378,562
1176,52.0779,568
1177,52.1179,603
1178,52.1579,540
1179,52.198,553
1180,52.238,582
1181,52.278,570
1182,52.3181,542
1183,52.3581,527
1184,52.3981,554
1185,52.4382,563
1186,52.4782,563
1187,52.5182,521
1188,52.5583,526
1189,52.5983,533
1190,52.6383,501
1191,52.6784,524
1192,52.7184,491
1193,52.7584,546
1194,52.7984,568
1195,52.8385,534
1196,52.8785,557
1197,52.9185,557
1198,52.9586,543
1199,52.9986,495
1200,53.0386,501
1201,53.0787,525
1202,53.1187,522
1203,53.1587,512
1204,53.1988,550
1205,53.2388,565
1206,53.2788,530
1207,53.3189,548
1208,53.3589,517
1209,53.3989,587
1210,53.439,513
1211,53.479,531
1212,53.519,515
1213,53.5591,560
1214,53.5991,581
1215,53.6391,495
1216,53.6792,614
1217,53.7192,535
1218,53.7592,565
1219,53.7993,571
1220,53.8393,546
1221,53.8793,497
1222,53.9193,560
1223,53.9594,557
1224,53.9994,522
1225,54.0394,516
1226,54.0795,540
1227,54.1195,513
1228,54.1595,561
1229,54.1996,497
1230,54.2396,557
1231,54.2796,520
1232,54.3197,495
1233,54.3597,508
1234,54.3997,527
1235,54.4398,510
1236,54.4798,546
1237,54.5198,507
1238,54.5599,524
1239,54.5999,542
1240,54.6399,531
1241,54.68,490
1242,54.72,459
1243,54.76,535
1244,54.8001,485
1245,54.8401,545
1246,54.8801,533
1247,54.9202,535
1248,54.9602,480
1249,55.0002,523
1250,55.0402,503
1251,55.0803,473
1252,55.1203,497
1253,55.1603,543
1254,55.2004,515
1255,55.2404,542
1256,55.2804,509
1257,55.3205,491
1258,55.3605,474
1259,55.4005,495
1260,55.4406,472
1261,55.4806,508
1262,55.5206,484
1263,55.5607,487
1264,55.6007,492
1265,55.6407,464
1266,55.6808,513
1267,55.7208,507
1268,55.7608,494
1269,55.8009,472
1270,55.8409,538
1271,55.8809,503
1272,55.921,498
1273,55.961,489
1274,56.001,505
1275,56.0411,467
1276,56.0811,518
1277,56.1211,493
1278,56.1612,427
1279,56.2012,472
1280,56.2412,490
1281,56.2812,522
1282,56.3213,496
1283,56.3613,475
1284,56.4013,466
1285,56.4414,500
1286,56.4814,466
1287,56.5214,475
1288,56.5615,462
1289,56.6015,510
1290,56.6415,483
1291,56.6816,511
1292,56.7216,440
1293,56.7616,504
1294,56.8017,481
1295,56.8417,456
1296,56.8817,479
1297,56.9218,452
1298,56.9618,488
1299,57.0018,493
1300,57.0419,486
1301,57.0819,502
1302,57.1219,469
1303,57.162,479
1304,57.202,477
1305,57.242,456
1306,57.2821,451
1307,57.3221,434
1308,57.3621,460
1309,57.4021,447
1310,57.4422,431
1311,57.4822,482
1312,57.5222,497
1313,57.5623,435
1314,57.6023,470
1315,57.6423,453
1316,57.6824,499
1317,57.7224,391
1318,57.7624,441
1319,57.8025,488
1320,57.8425,453
1321,57.8825,467
1322,57.9226,470
1323,57.9626,438
1324,58.0026,491
1325,58.0427,479
1326,58.0827,465
1327,58.1227,442
1328,58.1628,456
1329,58.2028,495
1330,58.2428,434
1331,58.2829,474
1332,58.3229,431
1333,58.3629,443
1334,58.403,420
1335,58.443,472
1336,58.483,453
1337,58.5231,427
1338,58.5631,462
1339,58.6031,428
1340,58.6431,454
1341,58.6832,471
1342,58.7232,437
1343,58.7632,437
1344,58.8033,420
1345,58.8433,461
1346,58.8833,461
1347,58.9234,433
1348,58.9634,438
1349,59.0034,431
1350,59.0435,445
1351,59.0835,420
1352,59.1235,430
1353,59.1636,427
1354,59.2036,421
1355,59.2436,450
1356,59.2837,434
1357,59.3237,436
1358,59.3637,440
1359,59.4038,443
1360,59.4438,451
1361,59.4838,454
1362,59.5239,431
1363,59.5639,425
1364,59.6039,448
1365,59.644,401
1366,59.684,421
1367,59.724,417
1368,59.764,406
1369,59.8041,447
1370,59.8441,434
1371,59.8841,450
1372,59.9242,422
1373,59.9642,409
1374,60.0042,419
1375,60.0443,423
1376,60.0843,427
1377,60.1243,401
1378,60.1644,410
1379,60.2044,423
1380,60.2444,459
1381,60.2845,446
1382,60.3245,400
1383,60.3645,393
1384,60.4046,439
1385,60.4446,414
1386,60.4846,457
1387,60.5247,415
1388,60.5647,435
1389,60.6047,442
1390,60.6448,421
1391,60.6848,444
1392,60.7248,384
1393,60.7649,427
1394,60.8049,401
1395,60.8449,403
1396,60.885,395
1397,60.925,437
1398,60.965,407
1399,61.005,434
1400,61.0451,392
1401,61.0851,406
1402,61.1251,418
1403,61.1652,435
1404,61.2052,379
1405,61.2452,397
1406,61.2853,434
1407,61.3253,408
1408,61.3653,423
1409,61.4054,394
1410,61.4454,381
1411,61.4854,424
1412,61.5255,429
1413,61.5655,411
1414,61.6055,427
1415,61.6456,386
1416,61.6856,424
1417,61.7256,411
1418,61.7657,437
1419,61.8057,403
1420,61.8457,392
1421,61.8858,452
1422,61.9258,399
1423,61.9658,411
1424,62.0059,403
1425,62.0459,447
1426,62.0859,418
1427,62.1259,401
1428,62.166,391
1429,62.206,392
1430,62.246,406
1431,62.2861,415
1432,62.3261,442
1433,62.3661,395
1434,62.4062,420
1435,62.4462,416
1436,62.4862,413
1437,62.5263,442
1438,62.5663,451
1439,62.6063,387
1440,62.6464,433
1441,62.6864,409
1442,62.7264,388
1443,62.7665,417
1444,62.8065,398
1445,62.8465,388
1446,62.8866,425
1447,62.9266,374
1448,62.9666,400
1449,63.0067,400
1450,63.0467,424
1451,63.0867,370
1452,63.1268,437
1453,63.1668,349
1454,63.2068,399
1455,63.2469,417
1456,63.2869,419
1457,63.3269,400
1458,63.3669,393
1459,63.407,390
1460,63.447,416
1461,63.487,386
1462,63.5271,397
1463,63.5671,402
1464,63.6071,404
1465,63.6472,425
1466,63.6872,386
1467,63.7272,412
1468,63.7673,380
1469,63.8073,385
1470,63.8473,366
1471,63.8874,408
1472,63.9274,389
1473,63.9674,394
1474,64.0075,409
1475,64.0475,397
1476,64.0875,436
1477,64.1276,405
1478,64.1676,392
1479,64.2076,424
1480,64.2477,407
1481,64.2877,435
1482,64.3277,441
1483,64.3678,408
1484,64.4078,443
1485,64.4478,420
1486,64.4878,385
1487,64.5279,431
1488,64.5679,373
1489,64.6079,402
1490,64.648,373
1491,64.688,395
1492,64.728,399
1493,64.7681,427
1494,64.8081,368
1495,64.8481,404
1496,64.8882,395
1497,64.9282,383
1498,64.9682,394
1499,65.0083,358
1500,65.0483,434
1501,65.0883,387
1502,65.1284,416
1503,65.1684,413
1504,65.2084,391
1505,65.2485,438
1506,65.2885,387
1507,65.3285,401
1508,65.3686,377
1509,65.4086,398
1510,65.4486,392
1511,65.4887,358
1512,65.5287,390
1513,65.5687,399
1514,65.6088,375
1515,65.6488,412
1516,65.6888,426
1517,65.7288,394
1518,65.7689,381
1519,65.8089,386
1520,65.8489,389
1521,65.889,365
1522,65.929,375
1523,65.969,374
1524,66.0091,401
1525,66.0491,389
1526,66.0891,403
1527,66.1292,404
1528,66.1692,367
1529,66.2092,404
1530,66.2493,373
1531,66.2893,372
1532,66.3293,382
1533,66.3694,397
1534,66.4094,401
1535,66.4494,357
1536,66.4895,403
1537,66.5295,379
1538,66.5695,369
1539,66.6096,370
1540,66.6496,371
1541,66.6896,386
1542,66.7297,367
1543,66.7697,394
1544,66.8097,443
1545,66.8497,365
1546,66.8898,380
1547,66.9298,405
1548,66.9698,370
1549,67.0099,384
1550,67.0499,384
1551,67.0899,386
1552,67.13,358
1553,67.17,394
1554,67.21,385
1555,67.2501,355
1556,67.2901,421
1557,67.3301,365
1558,67.3702,432
1559,67.4102,372
1560,67.4502,378
1561,67.4903,385
1562,67.5303,394
1563,67.5703,392
1564,67.6104,392
1565,67.6504,406
1566,67.6904,382
1567,67.7305,411
1568,67.7705,424
1569,67.8105,366
1570,67.8506,368
1571,67.8906,375
1572,67.9306,402
1573,67.9707,397
1574,68.0107,334
1575,68.0507,380
1576,68.0907,386
1577,68.1308,391
1578,68.1708,373
1579,68.2108,380
1580,68.2509,423
1581,68.2909,359
1582,68.3309,380
1583,68.371,386
1584,68.411,395
1585,68.451,372
1586,68.4911,374
1587,68.5311,369
1588,68.5711,348
1589,68.6112,382
1590,68.6512,349
1591,68.6912,370
1592,68.7313,388
1593,68.7713,396
1594,68.8113,369
1595,68.8514,365
1596,68.8914,407
1597,68.9314,395
1598,68.9715,379
1599,69.0115,390
1600,69.0515,371
1601,69.0916,396
1602,69.1316,373
1603,69.1716,412
1604,69.2116,379
1605,69.2517,404
1606,69.2917,400
1607,69.3317,404
1608,69.3718,372
1609,69.4118,391
1610,69.4518,389
1611,69.4919,358
1612,69.5319,387
1613,69.5719,347
1614,69.612,385
1615,69.652,360
1616,69.692,401
1617,69.7321,387
1618,69.7721,388
1619,69.8121,384
1620,69.8522,406
1621,69.8922,342
1622,69.9322,377
1623,69.9723,412
1624,70.0123,402
