Batch,scan002
Instrument ID,084303
Data Mode,%T
Sample,Sample001
Cycle,Cycle01
Date Collected,09/10/2025
Time Collected,06:21:28
Entries,Data Points
nm,%T
390.0,XXX.XXX
391.0,XXX.XXX
392.0,XXX.XXX
393.0,XXX.XXX
394.0,58.806
395.0,61.421
396.0,62.326
397.0,61.045
398.0,63.911
399.0,67.687
400.0,65.687
401.0,63.678
402.0,65.669
403.0,66.615
404.0,66.120
405.0,67.727
406.0,70.978
407.0,72.108
408.0,68.954
409.0,65.145
410.0,66.126
411.0,71.417
412.0,74.160
413.0,71.859
414.0,70.191
415.0,70.521
416.0,70.674
417.0,73.111
418.0,76.122
419.0,75.181
420.0,73.671
421.0,74.840
422.0,76.045
423.0,75.839
424.0,75.652
425.0,75.843
426.0,75.651
427.0,75.850
428.0,76.279
429.0,76.260
430.0,77.103
431.0,78.260
432.0,78.272
433.0,77.638
434.0,77.108
435.0,77.015
436.0,77.811
437.0,79.921
438.0,81.365
439.0,80.034
440.0,79.201
441.0,81.847
442.0,83.584
443.0,81.876
444.0,80.706
445.0,81.112
446.0,81.467
447.0,80.882
448.0,79.071
449.0,79.266
450.0,82.881
451.0,85.701
452.0,85.593
453.0,83.845
454.0,82.186
455.0,82.727
456.0,84.102
457.0,83.661
458.0,83.013
459.0,83.443
460.0,84.344
461.0,85.151
462.0,84.621
463.0,84.119
464.0,84.743
465.0,84.704
466.0,84.842
467.0,85.951
468.0,86.369
469.0,85.897
470.0,85.554
471.0,86.105
472.0,86.682
473.0,86.386
474.0,86.432
475.0,87.063
476.0,87.489
477.0,87.647
478.0,87.226
479.0,86.377
480.0,86.532
481.0,87.695
482.0,87.608
483.0,86.677
484.0,87.193
485.0,88.186
486.0,88.399
487.0,88.450
488.0,88.409
489.0,88.150
490.0,87.771
491.0,87.646
492.0,88.451
493.0,89.661
494.0,90.175
495.0,90.001
496.0,89.434
497.0,89.022
498.0,89.582
499.0,90.107
500.0,89.841
501.0,90.428
502.0,91.298
503.0,90.478
504.0,89.461
505.0,89.646
506.0,90.196
507.0,90.692
508.0,90.865
509.0,90.975
510.0,91.722
511.0,92.436
512.0,92.392
513.0,91.708
514.0,90.848
515.0,90.833
516.0,91.640
517.0,91.933
518.0,91.342
519.0,90.580
520.0,90.340
521.0,90.823
522.0,91.469
523.0,91.968
524.0,92.475
525.0,92.661
526.0,92.630
527.0,92.896
528.0,92.909
529.0,92.356
530.0,92.161
531.0,92.603
532.0,93.134
533.0,93.355
534.0,93.013
535.0,92.676
536.0,93.060
537.0,93.377
538.0,92.880
539.0,92.611
540.0,93.349
541.0,94.225
542.0,94.204
543.0,93.628
544.0,93.473
545.0,93.379
546.0,93.038
547.0,93.149
548.0,93.456
549.0,93.864
550.0,94.742
551.0,95.004
552.0,94.320
553.0,93.870
554.0,93.784
555.0,93.775
556.0,94.122
557.0,94.616
558.0,94.619
559.0,94.066
560.0,93.765
561.0,94.302
562.0,94.637
563.0,94.082
564.0,93.944
565.0,94.335
566.0,94.212
567.0,94.216
568.0,94.650
569.0,94.727
570.0,94.522
571.0,94.342
572.0,94.423
573.0,94.978
574.0,95.288
575.0,94.667
576.0,94.010
577.0,94.474
578.0,95.553
579.0,95.978
580.0,95.479
581.0,95.021
582.0,95.178
583.0,95.342
584.0,95.195
585.0,95.097
586.0,95.216
587.0,95.389
588.0,95.408
589.0,95.386
590.0,95.459
591.0,95.594
592.0,95.805
593.0,95.768
594.0,95.481
595.0,95.411
596.0,95.507
597.0,95.589
598.0,95.769
599.0,95.989
600.0,95.904
601.0,95.632
602.0,95.692
603.0,95.995
604.0,96.063
605.0,95.830
606.0,95.691
607.0,95.938
608.0,96.275
609.0,96.243
610.0,96.146
611.0,96.289
612.0,96.243
613.0,96.011
614.0,95.998
615.0,96.070
616.0,96.066
617.0,96.062
618.0,95.968
619.0,95.961
620.0,96.231
621.0,96.347
622.0,96.193
623.0,96.271
624.0,96.552
625.0,96.575
626.0,96.542
627.0,96.620
628.0,96.575
629.0,96.599
630.0,96.740
631.0,96.555
632.0,96.162
633.0,96.346
634.0,96.822
635.0,96.609
636.0,96.245
637.0,96.550
638.0,97.043
639.0,97.094
640.0,96.702
641.0,96.347
642.0,96.344
643.0,96.482
644.0,96.493
645.0,96.343
646.0,96.313
647.0,96.510
648.0,96.682
649.0,96.812
650.0,96.855
651.0,96.691
652.0,96.650
653.0,96.935
654.0,97.252
655.0,97.324
656.0,97.099
657.0,96.825
658.0,96.881
659.0,97.216
660.0,97.422
661.0,97.291
662.0,97.021
663.0,96.924
664.0,96.912
665.0,96.856
666.0,96.990
667.0,97.189
668.0,97.116
669.0,97.050
670.0,97.188
671.0,97.235
672.0,97.165
673.0,97.106
674.0,96.988
675.0,96.874
676.0,96.884
677.0,97.010
678.0,97.129
679.0,97.223
680.0,97.292
681.0,97.224
682.0,97.253
683.0,97.410
684.0,97.292
685.0,96.960
686.0,96.912
687.0,97.251
688.0,97.372
689.0,97.181
690.0,97.090
691.0,96.949
692.0,96.877
693.0,97.153
694.0,97.380
695.0,97.221
696.0,96.970
697.0,97.050
698.0,97.231
699.0,97.208
700.0,97.280
701.0,97.377
702.0,97.306
703.0,97.427
704.0,97.583
705.0,97.412
706.0,97.187
707.0,97.189
708.0,97.256
709.0,97.061
710.0,96.949
711.0,97.214
712.0,97.289
713.0,97.126
714.0,97.133
715.0,97.280
716.0,97.480
717.0,97.482
718.0,97.314
719.0,97.413
720.0,97.629
721.0,97.588
722.0,97.336
723.0,97.240
724.0,97.410
725.0,97.641
726.0,97.929
727.0,97.808
728.0,97.168
729.0,97.075
730.0,97.592
731.0,97.858
732.0,97.925
733.0,97.908
734.0,97.656
735.0,97.493
736.0,97.524
737.0,97.537
738.0,97.548
739.0,97.576
740.0,97.598
741.0,97.577
742.0,97.474
743.0,97.319
744.0,97.228
745.0,97.356
746.0,97.530
747.0,XXX.XXX
748.0,XXX.XXX
749.0,XXX.XXX
750.0,XXX.XXX
