Batch	scan006
Instrument ID	084303
Data Mode	%T
Sample	Sample001
Cycle	Cycle01
Date Collected	16/01/2025
Time Collected	03:34:37
Entries	Data Points
nm	%T
390.0	XXX.XXX
391.0	XXX.XXX
392.0	XXX.XXX
393.0	XXX.XXX
394.0	50.229
395.0	50.547
396.0	50.026
397.0	50.368
398.0	51.373
399.0	51.265
400.0	51.045
401.0	53.127
402.0	55.201
403.0	55.474
404.0	56.227
405.0	57.382
406.0	57.284
407.0	56.528
408.0	57.133
409.0	59.126
410.0	60.556
411.0	60.879
412.0	60.055
413.0	59.153
414.0	59.239
415.0	59.156
416.0	59.525
417.0	60.743
418.0	61.010
419.0	60.902
420.0	61.944
421.0	62.787
422.0	61.722
423.0	61.465
424.0	63.246
425.0	63.790
426.0	64.655
427.0	67.140
428.0	66.774
429.0	64.690
430.0	65.321
431.0	66.670
432.0	66.606
433.0	66.465
434.0	66.749
435.0	67.517
436.0	68.536
437.0	69.082
438.0	69.166
439.0	68.929
440.0	68.894
441.0	69.140
442.0	68.673
443.0	68.325
444.0	69.472
445.0	70.882
446.0	70.869
447.0	69.831
448.0	69.717
449.0	71.094
450.0	72.285
451.0	72.251
452.0	71.573
453.0	71.949
454.0	74.063
455.0	74.766
456.0	72.713
457.0	71.773
458.0	73.287
459.0	74.296
460.0	73.482
461.0	73.014
462.0	74.444
463.0	75.824
464.0	75.829
465.0	75.889
466.0	76.280
467.0	76.258
468.0	76.514
469.0	76.928
470.0	76.806
471.0	76.857
472.0	77.305
473.0	77.701
474.0	77.685
475.0	77.277
476.0	77.176
477.0	77.455
478.0	78.056
479.0	78.739
480.0	78.528
481.0	77.917
482.0	78.210
483.0	79.069
484.0	79.457
485.0	79.586
486.0	80.021
487.0	79.957
488.0	79.380
489.0	79.615
490.0	80.554
491.0	81.133
492.0	80.795
493.0	80.287
494.0	80.727
495.0	81.380
496.0	81.500
497.0	81.600
498.0	81.412
499.0	80.972
500.0	81.323
501.0	82.058
502.0	82.206
503.0	81.927
504.0	81.871
505.0	82.448
506.0	83.123
507.0	83.173
508.0	82.757
509.0	82.530
510.0	82.920
511.0	83.487
512.0	83.498
513.0	83.406
514.0	83.545
515.0	83.154
516.0	82.815
517.0	83.617
518.0	84.556
519.0	84.517
520.0	84.408
521.0	84.810
522.0	84.964
523.0	84.854
524.0	84.774
525.0	84.812
526.0	84.987
527.0	84.950
528.0	85.024
529.0	85.535
530.0	86.014
531.0	86.083
532.0	85.690
533.0	85.336
534.0	85.606
535.0	86.124
536.0	86.187
537.0	86.208
538.0	86.758
539.0	87.026
540.0	86.498
541.0	86.215
542.0	86.591
543.0	86.686
544.0	86.535
545.0	86.722
546.0	86.916
547.0	87.275
548.0	87.709
549.0	87.557
550.0	87.363
551.0	87.319
552.0	87.137
553.0	87.386
554.0	87.899
555.0	88.058
556.0	87.976
557.0	87.845
558.0	87.914
559.0	88.080
560.0	87.889
561.0	87.812
562.0	88.322
563.0	88.735
564.0	88.610
565.0	88.296
566.0	88.109
567.0	88.172
568.0	88.119
569.0	87.569
570.0	87.489
571.0	88.392
572.0	88.774
573.0	88.558
574.0	88.692
575.0	88.525
576.0	88.161
577.0	88.350
578.0	89.031
579.0	89.764
580.0	89.925
581.0	89.644
582.0	89.612
583.0	89.759
584.0	89.646
585.0	89.689
586.0	90.020
587.0	90.047
588.0	89.994
589.0	90.051
590.0	90.074
591.0	90.195
592.0	90.163
593.0	90.043
594.0	90.128
595.0	90.081
596.0	89.941
597.0	90.113
598.0	90.346
599.0	90.272
600.0	90.114
601.0	90.175
602.0	90.468
603.0	90.807
604.0	90.739
605.0	90.351
606.0	90.328
607.0	90.555
608.0	90.644
609.0	90.758
610.0	90.849
611.0	90.779
612.0	90.934
613.0	91.314
614.0	91.256
615.0	91.025
616.0	91.202
617.0	91.278
618.0	91.023
619.0	90.926
620.0	91.024
621.0	91.120
622.0	91.281
623.0	91.422
624.0	91.253
625.0	91.000
626.0	91.203
627.0	91.558
628.0	91.552
629.0	91.505
630.0	91.522
631.0	91.410
632.0	91.343
633.0	91.290
634.0	91.268
635.0	91.481
636.0	91.683
637.0	91.650
638.0	91.530
639.0	91.476
640.0	91.354
641.0	91.154
642.0	91.395
643.0	91.905
644.0	91.952
645.0	91.678
646.0	91.616
647.0	91.826
648.0	91.824
649.0	91.552
650.0	91.497
651.0	91.528
652.0	91.659
653.0	92.035
654.0	92.161
655.0	91.941
656.0	91.744
657.0	91.755
658.0	91.835
659.0	91.726
660.0	91.597
661.0	91.669
662.0	91.853
663.0	92.114
664.0	92.267
665.0	92.086
666.0	91.936
667.0	92.081
668.0	92.178
669.0	92.024
670.0	91.854
671.0	91.903
672.0	91.917
673.0	91.956
674.0	92.336
675.0	92.432
676.0	92.033
677.0	91.744
678.0	91.674
679.0	91.879
680.0	92.169
681.0	92.178
682.0	92.270
683.0	92.498
684.0	92.517
685.0	92.488
686.0	92.458
687.0	92.556
688.0	92.765
689.0	92.477
690.0	92.107
691.0	92.333
692.0	92.569
693.0	92.647
694.0	92.790
695.0	92.673
696.0	92.433
697.0	92.452
698.0	92.572
699.0	92.505
700.0	92.223
701.0	92.213
702.0	92.720
703.0	92.810
704.0	92.253
705.0	92.170
706.0	92.395
707.0	92.395
708.0	92.547
709.0	92.536
710.0	92.327
711.0	92.415
712.0	92.573
713.0	92.753
714.0	93.080
715.0	93.199
716.0	93.053
717.0	92.912
718.0	92.731
719.0	92.535
720.0	92.640
721.0	92.834
722.0	92.710
723.0	92.678
724.0	92.936
725.0	92.923
726.0	92.615
727.0	92.587
728.0	92.931
729.0	93.150
730.0	93.105
731.0	93.063
732.0	93.130
733.0	93.323
734.0	93.506
735.0	93.572
736.0	93.495
737.0	93.186
738.0	92.926
739.0	92.909
740.0	92.846
741.0	92.869
742.0	93.061
743.0	93.053
744.0	93.056
745.0	93.222
746.0	93.318
747.0	XXX.XXX
748.0	XXX.XXX
749.0	XXX.XXX
750.0	XXX.XXX
