Batch	scan004
Instrument ID	084303
Data Mode	%T
Sample	Sample001
Cycle	Cycle01
Date Collected	14/02/2025
Time Collected	12:38:54
Entries	Data Points
nm	%T
390.0	XXX.XXX
391.0	XXX.XXX
392.0	XXX.XXX
393.0	XXX.XXX
394.0	38.505
395.0	38.619
396.0	40.756
397.0	41.574
398.0	42.041
399.0	42.844
400.0	43.300
401.0	44.047
402.0	43.706
403.0	42.191
404.0	42.229
405.0	44.100
406.0	46.265
407.0	47.401
408.0	47.560
409.0	48.427
410.0	49.005
411.0	47.833
412.0	47.614
413.0	49.208
414.0	49.714
415.0	49.258
416.0	50.524
417.0	53.396
418.0	54.940
419.0	53.945
420.0	53.161
421.0	54.520
422.0	55.826
423.0	55.660
424.0	55.881
425.0	56.560
426.0	56.307
427.0	56.391
428.0	57.099
429.0	57.495
430.0	58.193
431.0	59.422
432.0	60.798
433.0	61.165
434.0	60.364
435.0	60.195
436.0	61.111
437.0	62.089
438.0	62.441
439.0	62.470
440.0	62.701
441.0	63.202
442.0	63.758
443.0	64.058
444.0	63.989
445.0	63.408
446.0	63.058
447.0	63.554
448.0	64.273
449.0	65.129
450.0	65.904
451.0	66.180
452.0	66.351
453.0	66.714
454.0	66.940
455.0	66.905
456.0	67.000
457.0	67.182
458.0	67.676
459.0	68.690
460.0	69.234
461.0	69.126
462.0	69.333
463.0	69.935
464.0	70.325
465.0	70.293
466.0	70.050
467.0	70.274
468.0	71.106
469.0	71.535
470.0	71.410
471.0	71.329
472.0	71.491
473.0	72.098
474.0	72.627
475.0	72.734
476.0	73.179
477.0	73.880
478.0	74.377
479.0	74.865
480.0	75.124
481.0	75.169
482.0	75.297
483.0	75.357
484.0	75.457
485.0	75.816
486.0	76.142
487.0	75.989
488.0	75.791
489.0	76.242
490.0	77.004
491.0	77.493
492.0	77.434
493.0	76.881
494.0	76.437
495.0	76.975
496.0	78.719
497.0	79.956
498.0	79.607
499.0	79.383
500.0	79.588
501.0	78.908
502.0	78.423
503.0	79.151
504.0	79.712
505.0	79.714
506.0	80.205
507.0	80.956
508.0	81.043
509.0	80.578
510.0	80.418
511.0	80.818
512.0	81.248
513.0	81.333
514.0	81.052
515.0	80.913
516.0	81.436
517.0	82.300
518.0	83.058
519.0	83.200
520.0	82.695
521.0	82.540
522.0	83.009
523.0	83.411
524.0	83.519
525.0	83.617
526.0	83.785
527.0	83.874
528.0	83.971
529.0	84.227
530.0	84.303
531.0	84.233
532.0	84.545
533.0	84.749
534.0	84.516
535.0	84.535
536.0	84.848
537.0	85.179
538.0	85.620
539.0	85.965
540.0	85.836
541.0	85.403
542.0	85.315
543.0	85.821
544.0	86.376
545.0	86.185
546.0	85.725
547.0	86.194
548.0	86.869
549.0	86.600
550.0	86.105
551.0	86.071
552.0	86.427
553.0	86.948
554.0	87.043
555.0	86.978
556.0	87.465
557.0	88.028
558.0	88.117
559.0	88.110
560.0	88.467
561.0	88.632
562.0	88.245
563.0	88.052
564.0	88.009
565.0	88.012
566.0	88.181
567.0	88.060
568.0	87.980
569.0	88.169
570.0	88.722
571.0	89.356
572.0	88.972
573.0	88.397
574.0	88.566
575.0	88.883
576.0	89.421
577.0	90.208
578.0	90.606
579.0	90.165
580.0	89.475
581.0	89.488
582.0	89.779
583.0	89.641
584.0	89.274
585.0	89.357
586.0	90.078
587.0	90.527
588.0	90.370
589.0	90.165
590.0	89.923
591.0	89.675
592.0	89.747
593.0	89.910
594.0	90.015
595.0	90.199
596.0	90.321
597.0	90.454
598.0	90.671
599.0	90.738
600.0	90.646
601.0	90.566
602.0	90.621
603.0	90.907
604.0	91.103
605.0	90.833
606.0	90.597
607.0	90.781
608.0	91.023
609.0	91.102
610.0	91.128
611.0	91.290
612.0	91.412
613.0	91.355
614.0	91.486
615.0	91.625
616.0	91.420
617.0	91.292
618.0	91.349
619.0	91.420
620.0	91.692
621.0	91.945
622.0	91.875
623.0	91.713
624.0	91.577
625.0	91.545
626.0	91.875
627.0	92.231
628.0	92.193
629.0	92.137
630.0	92.194
631.0	92.071
632.0	91.955
633.0	92.161
634.0	92.454
635.0	92.417
636.0	92.270
637.0	92.326
638.0	92.411
639.0	92.490
640.0	92.605
641.0	92.612
642.0	92.441
643.0	92.289
644.0	92.437
645.0	92.632
646.0	92.524
647.0	92.453
648.0	92.797
649.0	93.033
650.0	92.938
651.0	93.150
652.0	93.241
653.0	92.819
654.0	92.720
655.0	92.951
656.0	92.871
657.0	92.650
658.0	92.865
659.0	93.308
660.0	93.292
661.0	93.080
662.0	93.123
663.0	93.066
664.0	93.009
665.0	93.303
666.0	93.688
667.0	93.786
668.0	93.498
669.0	93.345
670.0	93.593
671.0	93.775
672.0	93.750
673.0	93.836
674.0	94.084
675.0	93.972
676.0	93.534
677.0	93.472
678.0	93.580
679.0	93.554
680.0	93.698
681.0	93.827
682.0	93.845
683.0	93.998
684.0	94.139
685.0	94.217
686.0	94.259
687.0	93.905
688.0	93.491
689.0	93.724
690.0	94.139
691.0	94.273
692.0	94.137
693.0	93.715
694.0	93.579
695.0	93.930
696.0	94.148
697.0	94.175
698.0	94.376
699.0	94.464
700.0	94.262
701.0	94.239
702.0	94.451
703.0	94.446
704.0	94.291
705.0	94.415
706.0	94.572
707.0	94.492
708.0	94.305
709.0	94.013
710.0	94.068
711.0	94.478
712.0	94.473
713.0	94.392
714.0	94.606
715.0	94.498
716.0	94.343
717.0	94.483
718.0	94.457
719.0	94.326
720.0	94.200
721.0	94.243
722.0	94.729
723.0	95.203
724.0	95.229
725.0	94.759
726.0	94.328
727.0	94.560
728.0	94.928
729.0	95.021
730.0	95.197
731.0	95.240
732.0	94.997
733.0	94.947
734.0	95.081
735.0	95.145
736.0	95.197
737.0	94.947
738.0	94.441
739.0	94.586
740.0	95.197
741.0	95.347
742.0	95.074
743.0	94.720
744.0	94.770
745.0	95.260
746.0	95.338
747.0	XXX.XXX
748.0	XXX.XXX
749.0	XXX.XXX
750.0	XXX.XXX
