Batch	scan004
Instrument ID	084303
Data Mode	%T
Sample	Sample001
Cycle	Cycle01
Date Collected	16/01/2025
Time Collected	03:21:09
Entries	Data Points
nm	%T
390.0	XXX.XXX
391.0	XXX.XXX
392.0	XXX.XXX
393.0	XXX.XXX
394.0	39.213
395.0	40.955
396.0	41.226
397.0	40.217
398.0	41.047
399.0	43.176
400.0	44.220
401.0	44.399
402.0	43.857
403.0	43.110
404.0	43.441
405.0	44.803
406.0	46.901
407.0	48.851
408.0	49.685
409.0	49.406
410.0	48.493
411.0	47.917
412.0	48.332
413.0	49.441
414.0	50.236
415.0	50.334
416.0	50.752
417.0	50.913
418.0	49.756
419.0	49.972
420.0	52.802
421.0	54.865
422.0	54.678
423.0	54.350
424.0	55.456
425.0	57.195
426.0	57.977
427.0	57.586
428.0	56.978
429.0	56.944
430.0	57.659
431.0	59.065
432.0	60.440
433.0	60.532
434.0	59.511
435.0	58.864
436.0	58.991
437.0	59.574
438.0	61.037
439.0	62.239
440.0	62.186
441.0	62.405
442.0	62.840
443.0	63.328
444.0	64.460
445.0	64.060
446.0	62.247
447.0	62.667
448.0	64.494
449.0	64.358
450.0	63.527
451.0	64.291
452.0	65.344
453.0	65.144
454.0	64.695
455.0	65.521
456.0	67.181
457.0	68.204
458.0	68.255
459.0	68.201
460.0	68.444
461.0	68.319
462.0	67.695
463.0	67.118
464.0	67.469
465.0	69.178
466.0	70.507
467.0	70.311
468.0	70.292
469.0	70.877
470.0	70.775
471.0	70.781
472.0	71.380
473.0	71.459
474.0	71.361
475.0	72.015
476.0	72.744
477.0	72.865
478.0	73.134
479.0	73.088
480.0	72.632
481.0	73.384
482.0	74.641
483.0	75.106
484.0	75.214
485.0	75.369
486.0	75.400
487.0	75.198
488.0	75.288
489.0	75.603
490.0	75.481
491.0	75.320
492.0	75.682
493.0	76.571
494.0	77.532
495.0	77.621
496.0	77.409
497.0	78.102
498.0	78.704
499.0	78.445
500.0	77.951
501.0	77.439
502.0	77.239
503.0	77.777
504.0	78.734
505.0	79.266
506.0	79.289
507.0	79.290
508.0	79.200
509.0	79.364
510.0	79.948
511.0	80.266
512.0	80.229
513.0	80.048
514.0	79.860
515.0	80.092
516.0	80.564
517.0	80.686
518.0	80.919
519.0	81.516
520.0	81.420
521.0	80.825
522.0	80.983
523.0	81.617
524.0	81.954
525.0	82.148
526.0	82.511
527.0	82.630
528.0	82.244
529.0	82.473
530.0	83.397
531.0	83.517
532.0	83.098
533.0	83.249
534.0	83.832
535.0	84.173
536.0	83.849
537.0	83.652
538.0	84.303
539.0	84.729
540.0	84.448
541.0	84.265
542.0	84.280
543.0	84.302
544.0	84.631
545.0	85.190
546.0	85.185
547.0	84.709
548.0	84.763
549.0	85.253
550.0	85.385
551.0	85.199
552.0	85.204
553.0	85.250
554.0	85.273
555.0	85.545
556.0	85.636
557.0	85.597
558.0	86.145
559.0	86.803
560.0	86.843
561.0	86.674
562.0	86.800
563.0	87.054
564.0	86.708
565.0	86.122
566.0	86.534
567.0	87.320
568.0	87.678
569.0	87.891
570.0	87.917
571.0	87.738
572.0	87.506
573.0	87.652
574.0	87.713
575.0	86.845
576.0	86.317
577.0	87.259
578.0	88.349
579.0	88.658
580.0	88.947
581.0	89.275
582.0	89.269
583.0	89.279
584.0	89.471
585.0	89.564
586.0	89.454
587.0	89.379
588.0	89.290
589.0	89.121
590.0	89.250
591.0	89.726
592.0	89.962
593.0	89.672
594.0	89.575
595.0	89.958
596.0	90.009
597.0	89.899
598.0	90.184
599.0	90.180
600.0	89.999
601.0	90.219
602.0	90.346
603.0	90.320
604.0	90.264
605.0	90.119
606.0	90.316
607.0	90.483
608.0	90.056
609.0	89.985
610.0	90.670
611.0	90.971
612.0	90.803
613.0	90.815
614.0	90.706
615.0	90.570
616.0	90.807
617.0	90.963
618.0	90.812
619.0	90.723
620.0	90.821
621.0	90.855
622.0	90.800
623.0	90.968
624.0	91.196
625.0	91.247
626.0	91.403
627.0	91.486
628.0	91.209
629.0	91.035
630.0	91.275
631.0	91.731
632.0	91.867
633.0	91.571
634.0	91.537
635.0	91.765
636.0	91.716
637.0	91.531
638.0	91.485
639.0	91.485
640.0	91.433
641.0	91.412
642.0	91.503
643.0	91.717
644.0	92.003
645.0	92.182
646.0	92.084
647.0	91.845
648.0	91.858
649.0	92.075
650.0	92.199
651.0	92.207
652.0	92.028
653.0	91.905
654.0	92.096
655.0	92.173
656.0	92.030
657.0	92.097
658.0	92.176
659.0	91.900
660.0	91.722
661.0	91.945
662.0	92.235
663.0	92.376
664.0	92.360
665.0	92.260
666.0	92.141
667.0	92.105
668.0	92.256
669.0	92.371
670.0	92.308
671.0	92.384
672.0	92.587
673.0	92.453
674.0	92.161
675.0	92.169
676.0	92.353
677.0	92.448
678.0	92.377
679.0	92.360
680.0	92.495
681.0	92.503
682.0	92.459
683.0	92.493
684.0	92.506
685.0	92.607
686.0	92.691
687.0	92.615
688.0	92.534
689.0	92.525
690.0	92.725
691.0	93.033
692.0	93.031
693.0	92.650
694.0	92.237
695.0	92.429
696.0	93.100
697.0	93.281
698.0	93.017
699.0	92.841
700.0	92.852
701.0	93.049
702.0	93.051
703.0	92.978
704.0	93.258
705.0	93.295
706.0	92.833
707.0	92.645
708.0	92.887
709.0	92.995
710.0	92.844
711.0	92.698
712.0	92.704
713.0	93.001
714.0	93.447
715.0	93.556
716.0	93.334
717.0	93.177
718.0	93.290
719.0	93.521
720.0	93.447
721.0	93.068
722.0	92.904
723.0	93.138
724.0	93.445
725.0	93.414
726.0	93.124
727.0	93.205
728.0	93.539
729.0	93.526
730.0	93.299
731.0	93.101
732.0	93.100
733.0	93.227
734.0	93.081
735.0	92.924
736.0	93.019
737.0	93.034
738.0	92.973
739.0	93.085
740.0	93.370
741.0	93.402
742.0	93.019
743.0	92.935
744.0	93.382
745.0	93.785
746.0	93.822
747.0	XXX.XXX
748.0	XXX.XXX
749.0	XXX.XXX
750.0	XXX.XXX
