Batch,scan011
Instrument ID,084303
Data Mode,%T
Sample,Sample001
Cycle,Cycle01
Date Collected,19/06/2025
Time Collected,04:55:27
Entries,Data Points
nm,%T
390.0,XXX.XXX
391.0,XXX.XXX
392.0,XXX.XXX
393.0,XXX.XXX
394.0,28.544
395.0,27.840
396.0,28.821
397.0,30.298
398.0,31.764
399.0,34.339
400.0,34.894
401.0,32.514
402.0,31.845
403.0,34.138
404.0,35.495
405.0,35.376
406.0,36.812
407.0,38.930
408.0,39.167
409.0,38.464
410.0,38.050
411.0,37.315
412.0,36.663
413.0,37.334
414.0,38.880
415.0,39.789
416.0,39.968
417.0,39.740
418.0,39.320
419.0,40.187
420.0,42.031
421.0,42.759
422.0,42.766
423.0,43.179
424.0,43.293
425.0,43.358
426.0,44.244
427.0,45.026
428.0,45.682
429.0,46.656
430.0,46.818
431.0,46.404
432.0,46.198
433.0,45.844
434.0,45.829
435.0,46.444
436.0,47.468
437.0,48.614
438.0,48.634
439.0,48.182
440.0,48.819
441.0,49.579
442.0,50.223
443.0,51.194
444.0,51.243
445.0,50.154
446.0,49.753
447.0,51.104
448.0,52.671
449.0,52.904
450.0,52.407
451.0,52.357
452.0,52.999
453.0,53.444
454.0,53.735
455.0,54.573
456.0,55.398
457.0,55.995
458.0,56.330
459.0,56.241
460.0,56.667
461.0,57.358
462.0,57.183
463.0,57.257
464.0,58.305
465.0,59.072
466.0,59.417
467.0,59.919
468.0,60.042
469.0,59.634
470.0,59.650
471.0,60.205
472.0,60.392
473.0,60.593
474.0,61.677
475.0,62.557
476.0,62.376
477.0,62.388
478.0,62.908
479.0,63.014
480.0,63.124
481.0,63.386
482.0,63.437
483.0,63.683
484.0,63.842
485.0,64.100
486.0,65.227
487.0,66.399
488.0,66.520
489.0,66.233
490.0,66.490
491.0,66.697
492.0,66.892
493.0,67.572
494.0,67.750
495.0,67.406
496.0,67.675
497.0,68.639
498.0,69.359
499.0,69.355
500.0,69.168
501.0,69.206
502.0,69.521
503.0,69.848
504.0,70.038
505.0,70.478
506.0,70.903
507.0,70.960
508.0,71.383
509.0,72.135
510.0,71.978
511.0,71.247
512.0,71.510
513.0,72.460
514.0,72.983
515.0,73.132
516.0,72.806
517.0,72.485
518.0,73.138
519.0,74.006
520.0,74.369
521.0,74.401
522.0,74.028
523.0,73.645
524.0,73.796
525.0,74.449
526.0,75.023
527.0,75.061
528.0,75.178
529.0,75.640
530.0,75.821
531.0,75.647
532.0,75.371
533.0,75.239
534.0,75.523
535.0,75.895
536.0,75.987
537.0,76.210
538.0,76.670
539.0,76.937
540.0,77.253
541.0,77.755
542.0,77.874
543.0,77.723
544.0,77.728
545.0,77.800
546.0,78.200
547.0,78.790
548.0,79.029
549.0,79.124
550.0,79.060
551.0,78.850
552.0,79.147
553.0,79.893
554.0,80.291
555.0,80.180
556.0,80.104
557.0,80.283
558.0,80.447
559.0,80.299
560.0,79.903
561.0,79.826
562.0,80.209
563.0,80.599
564.0,80.848
565.0,80.906
566.0,80.944
567.0,81.163
568.0,81.117
569.0,80.846
570.0,80.787
571.0,80.939
572.0,81.455
573.0,81.919
574.0,81.533
575.0,81.153
576.0,81.729
577.0,82.052
578.0,81.714
579.0,82.029
580.0,82.729
581.0,82.934
582.0,82.955
583.0,83.053
584.0,83.238
585.0,83.442
586.0,83.435
587.0,83.319
588.0,83.396
589.0,83.489
590.0,83.430
591.0,83.472
592.0,83.528
593.0,83.633
594.0,83.925
595.0,84.066
596.0,84.063
597.0,84.123
598.0,84.166
599.0,84.217
600.0,84.315
601.0,84.236
602.0,84.118
603.0,84.409
604.0,84.656
605.0,84.583
606.0,84.782
607.0,84.989
608.0,84.869
609.0,84.919
610.0,85.111
611.0,85.032
612.0,84.844
613.0,85.006
614.0,85.318
615.0,85.370
616.0,85.367
617.0,85.492
618.0,85.649
619.0,85.605
620.0,85.410
621.0,85.506
622.0,85.831
623.0,86.051
624.0,86.122
625.0,86.076
626.0,85.998
627.0,85.969
628.0,86.026
629.0,86.156
630.0,86.309
631.0,86.412
632.0,86.392
633.0,86.336
634.0,86.249
635.0,86.101
636.0,86.143
637.0,86.390
638.0,86.562
639.0,86.572
640.0,86.444
641.0,86.230
642.0,86.155
643.0,86.377
644.0,86.589
645.0,86.573
646.0,86.565
647.0,86.590
648.0,86.610
649.0,86.822
650.0,87.105
651.0,87.189
652.0,87.185
653.0,87.153
654.0,87.087
655.0,87.228
656.0,87.511
657.0,87.626
658.0,87.667
659.0,87.689
660.0,87.443
661.0,87.249
662.0,87.499
663.0,87.591
664.0,87.286
665.0,87.222
666.0,87.388
667.0,87.474
668.0,87.653
669.0,87.874
670.0,87.953
671.0,87.885
672.0,87.722
673.0,87.707
674.0,87.924
675.0,88.072
676.0,88.002
677.0,87.973
678.0,88.144
679.0,88.389
680.0,88.588
681.0,88.693
682.0,88.562
683.0,88.280
684.0,88.423
685.0,88.847
686.0,88.806
687.0,88.569
688.0,88.543
689.0,88.314
690.0,88.041
691.0,88.372
692.0,88.906
693.0,89.005
694.0,88.812
695.0,88.756
696.0,88.952
697.0,88.975
698.0,88.629
699.0,88.316
700.0,88.376
701.0,88.584
702.0,88.571
703.0,88.558
704.0,88.699
705.0,88.775
706.0,88.824
707.0,88.916
708.0,88.930
709.0,88.739
710.0,88.444
711.0,88.415
712.0,88.804
713.0,89.154
714.0,89.037
715.0,88.888
716.0,89.217
717.0,89.524
718.0,89.159
719.0,88.733
720.0,88.940
721.0,89.182
722.0,89.135
723.0,89.100
724.0,88.916
725.0,88.606
726.0,88.739
727.0,89.282
728.0,89.287
729.0,88.807
730.0,88.866
731.0,89.095
732.0,88.810
733.0,88.558
734.0,88.649
735.0,88.794
736.0,88.925
737.0,89.069
738.0,89.223
739.0,89.427
740.0,89.486
741.0,89.276
742.0,89.224
743.0,89.372
744.0,89.287
745.0,89.342
746.0,89.628
747.0,XXX.XXX
748.0,XXX.XXX
749.0,XXX.XXX
750.0,XXX.XXX
