nm,A
200.0,
200.5,
201.0,
201.5,
202.0,
202.5,
203.0,
203.5,
204.0,0.166
204.5,0.167
205.0,0.167
205.5,0.167
206.0,0.166
206.5,0.165
207.0,0.163
207.5,0.16
208.0,0.158
208.5,0.155
209.0,0.151
209.5,0.147
210.0,0.143
210.5,0.138
211.0,0.134
211.5,0.13
212.0,0.125
212.5,0.121
213.0,0.116
213.5,0.112
214.0,0.108
214.5,0.104
215.0,0.1
215.5,0.095
216.0,0.09
216.5,0.086
217.0,0.082
217.5,0.078
218.0,0.074
218.5,0.071
219.0,0.068
219.5,0.065
220.0,0.063
220.5,0.06
221.0,0.058
221.5,0.056
222.0,0.055
222.5,0.053
223.0,0.051
223.5,0.05
224.0,0.049
224.5,0.048
225.0,0.048
225.5,0.047
226.0,0.047
226.5,0.046
227.0,0.046
227.5,0.045
228.0,0.044
228.5,0.044
229.0,0.043
229.5,0.043
230.0,0.043
230.5,0.043
231.0,0.042
231.5,0.041
232.0,0.04
232.5,0.04
233.0,0.039
233.5,0.038
234.0,0.037
234.5,0.036
235.0,0.036
235.5,0.035
236.0,0.034
236.5,0.033
237.0,0.033
237.5,0.032
238.0,0.031
238.5,0.03
239.0,0.03
239.5,0.029
240.0,0.029
240.5,0.029
241.0,0.028
241.5,0.028
242.0,0.027
242.5,0.027
243.0,0.027
243.5,0.027
244.0,0.026
244.5,0.026
245.0,0.026
245.5,0.026
246.0,0.027
246.5,0.027
247.0,0.027
247.5,0.028
248.0,0.028
248.5,0.029
249.0,0.029
249.5,0.03
250.0,0.031
250.5,0.031
251.0,0.032
251.5,0.033
252.0,0.033
252.5,0.034
253.0,0.035
253.5,0.036
254.0,0.037
254.5,0.037
255.0,0.038
255.5,0.039
256.0,0.039
256.5,0.041
257.0,0.042
257.5,0.043
258.0,0.044
258.5,0.045
259.0,0.046
259.5,0.047
260.0,0.048
260.5,0.049
261.0,0.051
261.5,0.052
262.0,0.053
262.5,0.053
263.0,0.054
263.5,0.055
264.0,0.056
264.5,0.057
265.0,0.058
265.5,0.059
266.0,0.06
266.5,0.061
267.0,0.062
267.5,0.062
268.0,0.063
268.5,0.064
269.0,0.064
269.5,0.065
270.0,0.065
270.5,0.065
271.0,0.065
271.5,0.065
272.0,0.064
272.5,0.064
273.0,0.065
273.5,0.065
274.0,0.065
274.5,0.065
275.0,0.065
275.5,0.064
276.0,0.064
276.5,0.063
277.0,0.062
277.5,0.062
278.0,0.061
278.5,0.06
279.0,0.059
279.5,0.058
280.0,0.056
280.5,0.055
281.0,0.054
281.5,0.053
282.0,0.052
282.5,0.051
283.0,0.049
283.5,0.047
284.0,0.046
284.5,0.044
285.0,0.042
285.5,0.04
286.0,0.038
286.5,0.037
287.0,0.035
287.5,0.034
288.0,0.033
288.5,0.032
289.0,0.031
289.5,0.029
290.0,0.027
290.5,0.026
291.0,0.025
291.5,0.024
292.0,0.024
292.5,0.022
293.0,0.021
293.5,0.019
294.0,0.019
294.5,0.018
295.0,0.018
295.5,0.018
296.0,0.017
296.5,0.017
297.0,0.017
297.5,0.017
298.0,0.017
298.5,0.016
299.0,0.015
299.5,0.015
300.0,0.015
300.5,0.016
301.0,0.017
301.5,0.017
302.0,0.016
302.5,0.015
303.0,0.014
303.5,0.013
304.0,0.013
304.5,0.013
305.0,0.013
305.5,0.013
306.0,0.013
306.5,0.014
307.0,0.014
307.5,0.015
308.0,0.014
308.5,0.014
309.0,0.014
309.5,0.015
310.0,0.017
310.5,0.017
311.0,0.017
311.5,0.015
312.0,0.014
312.5,0.013
313.0,0.014
313.5,0.014
314.0,0.015
314.5,0.016
315.0,0.017
315.5,0.017
316.0,0.016
316.5,0.014
317.0,0.013
317.5,0.013
318.0,0.014
318.5,0.015
319.0,0.016
319.5,0.016
320.0,0.015
320.5,0.014
321.0,0.013
321.5,0.013
322.0,0.014
322.5,0.015
323.0,0.015
323.5,0.014
324.0,0.013
324.5,0.012
325.0,0.012
325.5,0.013
326.0,0.013
326.5,0.012
327.0,0.012
327.5,0.013
328.0,0.013
328.5,0.013
329.0,0.012
329.5,0.013
330.0,0.013
330.5,0.013
331.0,0.013
331.5,0.013
332.0,0.013
332.5,0.013
333.0,0.013
333.5,0.014
334.0,0.014
334.5,0.014
335.0,0.013
335.5,0.013
336.0,0.012
336.5,0.013
337.0,0.015
337.5,0.016
338.0,0.016
338.5,0.015
339.0,0.013
339.5,0.009
340.0,0.006
340.5,0.006
341.0,0.01
341.5,0.015
342.0,0.017
342.5,0.016
343.0,0.013
343.5,0.011
344.0,0.012
344.5,0.014
345.0,0.017
345.5,0.016
346.0,0.012
346.5,0.005
347.0,0.001
347.5,0.002
348.0,0.012
348.5,0.025
349.0,0.034
349.5,0.034
350.0,0.029
350.5,0.022
351.0,0.017
351.5,0.014
352.0,0.012
352.5,0.01
353.0,0.011
353.5,0.011
354.0,0.008
354.5,0.002
355.0,-0.006
355.5,-0.009
356.0,-0.005
356.5,0.004
357.0,0.013
357.5,0.016
358.0,0.014
358.5,0.013
359.0,0.013
359.5,0.012
360.0,0.009
360.5,0.007
361.0,0.008
361.5,0.01
362.0,0.011
362.5,0.009
363.0,0.005
363.5,-0.001
364.0,-0.006
364.5,-0.007
365.0,-0.005
365.5,-0.001
366.0,0.003
366.5,0.006
367.0,0.009
367.5,0.011
368.0,0.011
368.5,0.009
369.0,0.009
369.5,0.011
370.0,0.015
370.5,0.019
371.0,0.021
371.5,0.021
372.0,0.021
372.5,0.02
373.0,0.019
373.5,0.016
374.0,0.013
374.5,0.013
375.0,0.014
375.5,0.015
376.0,0.012
376.5,0.008
377.0,0.006
377.5,0.008
378.0,0.01
378.5,0.011
379.0,0.009
379.5,0.005
380.0,0.004
380.5,0.005
381.0,0.006
381.5,0.006
382.0,0.005
382.5,0.008
383.0,0.01
383.5,0.006
384.0,-0.004
384.5,-0.014
385.0,-0.018
385.5,-0.015
386.0,-0.01
386.5,-0.005
387.0,-0.002
387.5,-0.002
388.0,-0.003
388.5,-0.001
389.0,0.009
389.5,0.021
390.0,0.027
390.5,0.021
391.0,0.009
391.5,-0.002
392.0,-0.006
392.5,-0.006
393.0,-0.005
393.5,-0.002
394.0,0.005
394.5,0.016
395.0,0.025
395.5,0.027
396.0,0.021
396.5,0.011
397.0,0.002
397.5,-0.001
398.0,-0.001
398.5,0.0
399.0,0.002
399.5,0.005
400.0,0.01
400.5,0.017
401.0,0.022
401.5,0.028
402.0,0.032
402.5,0.034
403.0,0.032
403.5,0.026
404.0,0.019
404.5,0.013
405.0,0.01
405.5,0.007
406.0,0.004
406.5,
407.0,
407.5,
408.0,
408.5,
409.0,
409.5,
410.0,
